4.447999999999999697e-03
4.436999999999999972e-03
4.441999999999999768e-03
4.453999999999999626e-03
4.461999999999999821e-03
4.452000000000000228e-03
4.431000000000000043e-03
4.433999999999999574e-03
4.459000000000000290e-03
4.461999999999999821e-03
4.447999999999999697e-03
4.423999999999999981e-03
4.431000000000000043e-03
4.455999999999999892e-03
4.466999999999999617e-03
4.454999999999999759e-03
4.429999999999999910e-03
4.435999999999999839e-03
4.453999999999999626e-03
4.455999999999999892e-03
4.436999999999999972e-03
4.418000000000000052e-03
4.416999999999999919e-03
4.440000000000000370e-03
4.457000000000000024e-03
4.447000000000000432e-03
4.427000000000000379e-03
4.439000000000000237e-03
4.448999999999999830e-03
4.457000000000000024e-03
4.440999999999999635e-03
4.421999999999999716e-03
4.422999999999999848e-03
4.441999999999999768e-03
4.459000000000000290e-03
4.432000000000000176e-03
4.409999999999999858e-03
4.419000000000000185e-03
4.438000000000000105e-03
4.441999999999999768e-03
4.433999999999999574e-03
4.414999999999999654e-03
4.419000000000000185e-03
4.440999999999999635e-03
4.453000000000000361e-03
4.432000000000000176e-03
4.413000000000000256e-03
4.415999999999999787e-03
4.433000000000000308e-03
4.447999999999999697e-03
4.429999999999999910e-03
4.408999999999999725e-03
4.407999999999999592e-03
4.429999999999999910e-03
4.457000000000000024e-03
4.462999999999999953e-03
4.468999999999999882e-03
4.479000000000000342e-03
4.493999999999999731e-03
4.514999999999999916e-03
4.501999999999999925e-03
4.473999999999999679e-03
4.465000000000000219e-03
4.460999999999999688e-03
4.440000000000000370e-03
4.401999999999999663e-03
4.396999999999999867e-03
4.408999999999999725e-03
4.425000000000000114e-03
4.431000000000000043e-03
4.422999999999999848e-03
4.413000000000000256e-03
4.394999999999999601e-03
4.408999999999999725e-03
4.429999999999999910e-03
4.414000000000000389e-03
4.381999999999999611e-03
4.382999999999999743e-03
4.401999999999999663e-03
4.402999999999999796e-03
4.398000000000000000e-03
4.382999999999999743e-03
4.379000000000000080e-03
4.401999999999999663e-03
4.410999999999999990e-03
4.385000000000000009e-03
4.377999999999999947e-03
4.396999999999999867e-03
4.407000000000000327e-03
4.399000000000000132e-03
4.343999999999999771e-03
4.265999999999999827e-03
4.278999999999999818e-03
4.389999999999999805e-03
4.512000000000000385e-03
4.686000000000000061e-03
4.939999999999999947e-03
5.279999999999999971e-03
5.675000000000000357e-03
5.912999999999999853e-03
5.584000000000000422e-03
5.152999999999999595e-03
4.759000000000000209e-03
4.473000000000000413e-03
4.420999999999999583e-03
4.452000000000000228e-03
4.470000000000000015e-03
4.471000000000000148e-03
4.471000000000000148e-03
4.475999999999999944e-03
4.448999999999999830e-03
4.427000000000000379e-03
4.420000000000000318e-03
4.423999999999999981e-03
4.439000000000000237e-03
4.436999999999999972e-03
4.423999999999999981e-03
4.423999999999999981e-03
4.431000000000000043e-03
4.429999999999999910e-03
4.410999999999999990e-03
4.390999999999999938e-03
4.401999999999999663e-03
4.427000000000000379e-03
4.438000000000000105e-03
4.414999999999999654e-03
4.392000000000000071e-03
4.400000000000000265e-03
4.431000000000000043e-03
4.435999999999999839e-03
4.419000000000000185e-03
4.403999999999999929e-03
4.419000000000000185e-03
4.436999999999999972e-03
4.434999999999999706e-03
4.419000000000000185e-03
4.400000000000000265e-03
4.398000000000000000e-03
4.434999999999999706e-03
4.435999999999999839e-03
4.418000000000000052e-03
4.407000000000000327e-03
4.416999999999999919e-03
4.447000000000000432e-03
4.458000000000000157e-03
4.429999999999999910e-03
4.427000000000000379e-03
4.445000000000000166e-03
4.468999999999999882e-03
4.475999999999999944e-03
4.454999999999999759e-03
4.442999999999999901e-03
4.453000000000000361e-03
4.483000000000000006e-03
4.486999999999999669e-03
4.484000000000000138e-03
4.477000000000000077e-03
4.484000000000000138e-03
4.508999999999999987e-03
4.518000000000000314e-03
4.504000000000000191e-03
4.503000000000000058e-03
4.506999999999999722e-03
4.531999999999999570e-03
4.539999999999999765e-03
4.531000000000000305e-03
4.518999999999999580e-03
4.514999999999999916e-03
4.549000000000000092e-03
4.565999999999999746e-03
4.540999999999999898e-03
4.532999999999999703e-03
4.544000000000000296e-03
4.558999999999999685e-03
4.566999999999999879e-03
4.551999999999999623e-03
4.536000000000000101e-03
4.525999999999999641e-03
4.531000000000000305e-03
4.533999999999999836e-03
4.511000000000000253e-03
4.479999999999999608e-03
4.462999999999999953e-03
4.454999999999999759e-03
4.445000000000000166e-03
4.413000000000000256e-03
4.381999999999999611e-03
4.379000000000000080e-03
4.383999999999999876e-03
4.381999999999999611e-03
4.364999999999999956e-03
4.348999999999999568e-03
4.336999999999999710e-03
4.355000000000000364e-03
4.349999999999999700e-03
4.317999999999999790e-03
4.296000000000000339e-03
4.311999999999999861e-03
4.342999999999999639e-03
4.350999999999999833e-03
4.322999999999999586e-03
4.296000000000000339e-03
4.305999999999999932e-03
4.337999999999999842e-03
4.349999999999999700e-03
4.329000000000000382e-03
4.309000000000000330e-03
4.301000000000000136e-03
4.316000000000000392e-03
4.329999999999999648e-03
4.321000000000000188e-03
4.297999999999999737e-03
4.305999999999999932e-03
4.315000000000000259e-03
4.309999999999999595e-03
4.301000000000000136e-03
4.300000000000000003e-03
4.295000000000000207e-03
4.307000000000000065e-03
4.310999999999999728e-03
4.277999999999999685e-03
4.263000000000000296e-03
4.277000000000000419e-03
4.311999999999999861e-03
4.316000000000000392e-03
4.284999999999999747e-03
4.252999999999999836e-03
4.253999999999999969e-03
4.277000000000000419e-03
4.303000000000000401e-03
4.283999999999999614e-03
4.256000000000000234e-03
4.277999999999999685e-03
4.290999999999999676e-03
4.268000000000000092e-03
4.242000000000000111e-03
4.242000000000000111e-03
4.259999999999999898e-03
4.270999999999999623e-03
4.264000000000000429e-03
4.246999999999999907e-03
4.237000000000000315e-03
4.235000000000000049e-03
4.255000000000000102e-03
4.270000000000000358e-03
4.233999999999999916e-03
4.230000000000000253e-03
4.249000000000000173e-03
4.243000000000000244e-03
4.226999999999999855e-03
4.213999999999999864e-03
4.205999999999999669e-03
4.218999999999999660e-03
4.237999999999999580e-03
4.238999999999999713e-03
4.216000000000000129e-03
4.214999999999999997e-03
4.216000000000000129e-03
4.225999999999999722e-03
4.226999999999999855e-03
4.205000000000000404e-03
4.193999999999999811e-03
4.207999999999999935e-03
4.212999999999999731e-03
4.207999999999999935e-03
4.189000000000000015e-03
4.176000000000000024e-03
4.179000000000000423e-03
4.197000000000000210e-03
4.179999999999999688e-03
4.167999999999999830e-03
4.174999999999999892e-03
4.185999999999999617e-03
4.203000000000000139e-03
4.200999999999999873e-03
4.172999999999999626e-03
4.150000000000000043e-03
4.171000000000000228e-03
4.199999999999999740e-03
4.185000000000000352e-03
4.166999999999999697e-03
4.150000000000000043e-03
4.140999999999999716e-03
4.164000000000000166e-03
4.166000000000000432e-03
4.155999999999999972e-03
4.139999999999999583e-03
4.137000000000000052e-03
4.150000000000000043e-03
4.159000000000000370e-03
4.141999999999999849e-03
4.121999999999999796e-03
4.133000000000000389e-03
4.144000000000000114e-03
4.154999999999999839e-03
4.125000000000000194e-03
4.109999999999999938e-03
4.154999999999999839e-03
4.187999999999999882e-03
4.177000000000000157e-03
4.170000000000000095e-03
4.181999999999999953e-03
4.205999999999999669e-03
4.231000000000000386e-03
4.218999999999999660e-03
4.174999999999999892e-03
4.135999999999999920e-03
4.132000000000000256e-03
4.159999999999999636e-03
4.159000000000000370e-03
4.112000000000000204e-03
4.109999999999999938e-03
4.112000000000000204e-03
4.127999999999999725e-03
4.114999999999999734e-03
4.102999999999999876e-03
4.085000000000000089e-03
4.095999999999999815e-03
4.100999999999999611e-03
4.089999999999999886e-03
4.062999999999999771e-03
4.048999999999999648e-03
4.074999999999999629e-03
4.081999999999999691e-03
4.075999999999999762e-03
4.074999999999999629e-03
4.067000000000000302e-03
4.062999999999999771e-03
4.086000000000000222e-03
4.085000000000000089e-03
4.056999999999999842e-03
4.035000000000000392e-03
4.054000000000000312e-03
4.061999999999999639e-03
4.009999999999999676e-03
3.955000000000000182e-03
3.985999999999999960e-03
4.160999999999999768e-03
4.355999999999999629e-03
4.549000000000000092e-03
4.793000000000000385e-03
5.080000000000000314e-03
5.432000000000000196e-03
5.551000000000000378e-03
5.179999999999999709e-03
4.700000000000000185e-03
4.304999999999999799e-03
4.111000000000000071e-03
4.072000000000000099e-03
4.108999999999999805e-03
4.126000000000000327e-03
4.117000000000000000e-03
4.124000000000000062e-03
4.127999999999999725e-03
4.124000000000000062e-03
4.095999999999999815e-03
4.076999999999999895e-03
4.100999999999999611e-03
4.087000000000000355e-03
4.082999999999999824e-03
4.062999999999999771e-03
4.049999999999999781e-03
4.078000000000000028e-03
4.106000000000000275e-03
4.066000000000000170e-03
4.053000000000000179e-03
4.076999999999999895e-03
4.079000000000000160e-03
4.087999999999999620e-03
4.083999999999999957e-03
4.049999999999999781e-03
4.041999999999999586e-03
4.074999999999999629e-03
4.085000000000000089e-03
4.082999999999999824e-03
4.061000000000000373e-03
4.028999999999999596e-03
4.042999999999999719e-03
4.087999999999999620e-03
4.087000000000000355e-03
4.061999999999999639e-03
4.066000000000000170e-03
4.079000000000000160e-03
4.088999999999999753e-03
4.065000000000000037e-03
4.036999999999999790e-03
4.048999999999999648e-03
4.055999999999999710e-03
4.086000000000000222e-03
4.104000000000000009e-03
4.081999999999999691e-03
4.047000000000000250e-03
4.073000000000000231e-03
4.093000000000000284e-03
4.073000000000000231e-03
4.067000000000000302e-03
4.069999999999999833e-03
4.089999999999999886e-03
4.109999999999999938e-03
4.102999999999999876e-03
4.080000000000000293e-03
4.119000000000000265e-03
4.133000000000000389e-03
4.140999999999999716e-03
4.133000000000000389e-03
4.139999999999999583e-03
4.131000000000000123e-03
4.111000000000000071e-03
4.142999999999999981e-03
4.187999999999999882e-03
4.192000000000000413e-03
4.159999999999999636e-03
4.138000000000000185e-03
4.185000000000000352e-03
4.199999999999999740e-03
4.180999999999999821e-03
4.174999999999999892e-03
4.186999999999999750e-03
4.211999999999999598e-03
4.211000000000000333e-03
4.179000000000000423e-03
4.179000000000000423e-03
4.159999999999999636e-03
4.155999999999999972e-03
4.159000000000000370e-03
4.105000000000000142e-03
4.063999999999999904e-03
4.094000000000000417e-03
4.105000000000000142e-03
4.076999999999999895e-03
4.031999999999999994e-03
4.041000000000000321e-03
4.046000000000000117e-03
4.022999999999999667e-03
3.985999999999999960e-03
3.961000000000000111e-03
3.943000000000000324e-03
3.964999999999999775e-03
3.997999999999999818e-03
3.978999999999999898e-03
3.949000000000000253e-03
3.945999999999999855e-03
3.954000000000000049e-03
3.991999999999999889e-03
4.011999999999999941e-03
3.988000000000000225e-03
3.961000000000000111e-03
3.949000000000000253e-03
3.950999999999999651e-03
3.939999999999999926e-03
3.933999999999999997e-03
3.956999999999999580e-03
3.965999999999999907e-03
3.974000000000000102e-03
3.988000000000000225e-03
3.968000000000000173e-03
3.943000000000000324e-03
3.968000000000000173e-03
3.983999999999999694e-03
3.976000000000000367e-03
3.950000000000000386e-03
3.937000000000000395e-03
3.976000000000000367e-03
3.946999999999999988e-03
3.932999999999999864e-03
3.937000000000000395e-03
3.937999999999999660e-03
3.970999999999999704e-03
3.982000000000000296e-03
3.962000000000000244e-03
3.905000000000000051e-03
3.930000000000000333e-03
3.989999999999999623e-03
4.001000000000000216e-03
3.983000000000000429e-03
3.957999999999999713e-03
3.917000000000000343e-03
3.903999999999999918e-03
3.924000000000000404e-03
3.937999999999999660e-03
3.935000000000000130e-03
3.930999999999999599e-03
3.971999999999999836e-03
3.981000000000000164e-03
3.951999999999999784e-03
3.926999999999999935e-03
3.930999999999999599e-03
3.955000000000000182e-03
3.975000000000000235e-03
3.951999999999999784e-03
3.951999999999999784e-03
3.937999999999999660e-03
3.949000000000000253e-03
3.952999999999999917e-03
3.929000000000000201e-03
3.930000000000000333e-03
3.942000000000000191e-03
3.928000000000000068e-03
3.916000000000000210e-03
3.912999999999999812e-03
3.909000000000000148e-03
3.924000000000000404e-03
3.913999999999999944e-03
3.929000000000000201e-03
3.946999999999999988e-03
3.961000000000000111e-03
3.956999999999999580e-03
3.976000000000000367e-03
3.957999999999999713e-03
3.925999999999999802e-03
3.905000000000000051e-03
3.897999999999999989e-03
3.923000000000000272e-03
3.944999999999999722e-03
3.943999999999999589e-03
3.902999999999999785e-03
3.880000000000000202e-03
3.943000000000000324e-03
3.982000000000000296e-03
3.964999999999999775e-03
3.932999999999999864e-03
3.906999999999999883e-03
3.929000000000000201e-03
3.959999999999999978e-03
3.957999999999999713e-03
3.931999999999999731e-03
3.956000000000000315e-03
4.002000000000000349e-03
4.015999999999999605e-03
4.015000000000000339e-03
3.991999999999999889e-03
3.983999999999999694e-03
4.013000000000000074e-03
4.031999999999999994e-03
4.028000000000000330e-03
4.016999999999999738e-03
4.010999999999999809e-03
4.007000000000000145e-03
3.989000000000000358e-03
3.990999999999999756e-03
3.954000000000000049e-03
3.937000000000000395e-03
3.967000000000000040e-03
3.965999999999999907e-03
3.944999999999999722e-03
3.916000000000000210e-03
3.917000000000000343e-03
3.918999999999999741e-03
3.937999999999999660e-03
3.919999999999999873e-03
3.912999999999999812e-03
3.913999999999999944e-03
3.939999999999999926e-03
3.932999999999999864e-03
3.930999999999999599e-03
3.915000000000000077e-03
3.924999999999999670e-03
3.931999999999999731e-03
3.906999999999999883e-03
3.930000000000000333e-03
3.928000000000000068e-03
3.917000000000000343e-03
3.926999999999999935e-03
3.949000000000000253e-03
3.900999999999999954e-03
3.801999999999999824e-03
3.843000000000000062e-03
3.996999999999999685e-03
4.173999999999999759e-03
4.402999999999999796e-03
4.651999999999999885e-03
4.939999999999999947e-03
5.257000000000000388e-03
5.479999999999999628e-03
5.248000000000000061e-03
4.752000000000000147e-03
4.297999999999999737e-03
4.026000000000000065e-03
3.948000000000000120e-03
3.976000000000000367e-03
4.026000000000000065e-03
4.026000000000000065e-03
4.028000000000000330e-03
4.028999999999999596e-03
3.998999999999999951e-03
3.982000000000000296e-03
3.976000000000000367e-03
3.991999999999999889e-03
3.996000000000000420e-03
4.007000000000000145e-03
3.983000000000000429e-03
3.969000000000000306e-03
3.977999999999999765e-03
4.000000000000000083e-03
3.994000000000000154e-03
3.963000000000000377e-03
3.972999999999999969e-03
3.998999999999999951e-03
4.014000000000000207e-03
4.006000000000000012e-03
3.987000000000000093e-03
3.978999999999999898e-03
3.989999999999999623e-03
4.013000000000000074e-03
4.004999999999999880e-03
3.984999999999999827e-03
3.995000000000000287e-03
4.029999999999999728e-03
4.031999999999999994e-03
4.015000000000000339e-03
4.010999999999999809e-03
4.017999999999999870e-03
4.011999999999999941e-03
4.029999999999999728e-03
4.044999999999999984e-03
4.033000000000000126e-03
4.028000000000000330e-03
4.041000000000000321e-03
4.076999999999999895e-03
4.078000000000000028e-03
4.055999999999999710e-03
4.042999999999999719e-03
4.066000000000000170e-03
4.095999999999999815e-03
4.088999999999999753e-03
4.074999999999999629e-03
4.072000000000000099e-03
4.089999999999999886e-03
4.120999999999999663e-03
4.120000000000000398e-03
4.105000000000000142e-03
4.098000000000000080e-03
4.125000000000000194e-03
4.144000000000000114e-03
4.131000000000000123e-03
4.112000000000000204e-03
4.124000000000000062e-03
4.160999999999999768e-03
4.171000000000000228e-03
4.165000000000000299e-03
4.147999999999999778e-03
4.173999999999999759e-03
4.207999999999999935e-03
4.216000000000000129e-03
4.193999999999999811e-03
4.189000000000000015e-03
4.198999999999999608e-03
4.218000000000000395e-03
4.224999999999999589e-03
4.213999999999999864e-03
4.210000000000000200e-03
4.211999999999999598e-03
4.206999999999999802e-03
4.192999999999999679e-03
4.166000000000000432e-03
4.138000000000000185e-03
4.124000000000000062e-03
4.106000000000000275e-03
4.115999999999999867e-03
4.094000000000000417e-03
4.054999999999999577e-03
4.040000000000000188e-03
4.060000000000000241e-03
4.076999999999999895e-03
4.054999999999999577e-03
4.022000000000000401e-03
4.023999999999999799e-03
4.022999999999999667e-03
4.057999999999999975e-03
4.065000000000000037e-03
4.021000000000000268e-03
4.006000000000000012e-03
4.036999999999999790e-03
4.054000000000000312e-03
4.047000000000000250e-03
4.015000000000000339e-03
4.017999999999999870e-03
4.044999999999999984e-03
4.052000000000000046e-03
4.049999999999999781e-03
4.035999999999999657e-03
4.030999999999999861e-03
4.050999999999999913e-03
4.057999999999999975e-03
4.033000000000000126e-03
4.001000000000000216e-03
4.015999999999999605e-03
4.041999999999999586e-03
4.060000000000000241e-03
4.047000000000000250e-03
4.035000000000000392e-03
4.035000000000000392e-03
4.035000000000000392e-03
4.054999999999999577e-03
4.050999999999999913e-03
4.030999999999999861e-03
4.035999999999999657e-03
4.047000000000000250e-03
4.053000000000000179e-03
4.049999999999999781e-03
4.030999999999999861e-03
4.035999999999999657e-03
4.050999999999999913e-03
4.053000000000000179e-03
4.049999999999999781e-03
4.041999999999999586e-03
4.041999999999999586e-03
4.053000000000000179e-03
4.066000000000000170e-03
4.048000000000000383e-03
4.028999999999999596e-03
4.035999999999999657e-03
4.048999999999999648e-03
4.053000000000000179e-03
4.040000000000000188e-03
4.028999999999999596e-03
4.041999999999999586e-03
4.072000000000000099e-03
4.088999999999999753e-03
4.066000000000000170e-03
4.021000000000000268e-03
4.014000000000000207e-03
4.041999999999999586e-03
4.067000000000000302e-03
4.065000000000000037e-03
4.040000000000000188e-03
4.041000000000000321e-03
4.067000000000000302e-03
4.073000000000000231e-03
4.057999999999999975e-03
4.042999999999999719e-03
4.034000000000000259e-03
4.041999999999999586e-03
4.065000000000000037e-03
4.062999999999999771e-03
4.039000000000000055e-03
4.062999999999999771e-03
4.089999999999999886e-03
4.081000000000000426e-03
4.063999999999999904e-03
4.047000000000000250e-03
4.056999999999999842e-03
4.080000000000000293e-03
4.093000000000000284e-03
4.069999999999999833e-03
4.052000000000000046e-03
4.057999999999999975e-03
4.087999999999999620e-03
4.099000000000000213e-03
4.073000000000000231e-03
4.048000000000000383e-03
4.050999999999999913e-03
4.079000000000000160e-03
4.099000000000000213e-03
4.086000000000000222e-03
4.059000000000000108e-03
4.053000000000000179e-03
4.080000000000000293e-03
4.094999999999999682e-03
4.094999999999999682e-03
4.086000000000000222e-03
4.082999999999999824e-03
4.092000000000000151e-03
4.102999999999999876e-03
4.093000000000000284e-03
4.086000000000000222e-03
4.096999999999999947e-03
4.105000000000000142e-03
4.102999999999999876e-03
4.085000000000000089e-03
4.079000000000000160e-03
4.091000000000000018e-03
4.089999999999999886e-03
4.087000000000000355e-03
4.074000000000000364e-03
4.076999999999999895e-03
4.120000000000000398e-03
4.165000000000000299e-03
4.180999999999999821e-03
4.150000000000000043e-03
4.139000000000000318e-03
4.158000000000000237e-03
4.177000000000000157e-03
4.178000000000000290e-03
4.133000000000000389e-03
4.095999999999999815e-03
4.092000000000000151e-03
4.099000000000000213e-03
4.114999999999999734e-03
4.113000000000000336e-03
4.113999999999999602e-03
4.109999999999999938e-03
4.114999999999999734e-03
4.120000000000000398e-03
4.082999999999999824e-03
4.065000000000000037e-03
4.080000000000000293e-03
4.114999999999999734e-03
4.132000000000000256e-03
4.099000000000000213e-03
4.087999999999999620e-03
4.091000000000000018e-03
4.111000000000000071e-03
4.128999999999999858e-03
4.101999999999999744e-03
4.073000000000000231e-03
4.082999999999999824e-03
4.099000000000000213e-03
4.118000000000000133e-03
4.104000000000000009e-03
4.067000000000000302e-03
4.016999999999999738e-03
4.002000000000000349e-03
4.098000000000000080e-03
4.209000000000000068e-03
4.350999999999999833e-03
4.579999999999999870e-03
4.878999999999999657e-03
5.198000000000000363e-03
5.486999999999999690e-03
5.468999999999999903e-03
5.046000000000000138e-03
4.649000000000000354e-03
4.303999999999999666e-03
4.139999999999999583e-03
4.172000000000000361e-03
4.214999999999999997e-03
4.232999999999999784e-03
4.218999999999999660e-03
4.205999999999999669e-03
4.196000000000000077e-03
4.187999999999999882e-03
4.189000000000000015e-03
4.196000000000000077e-03
4.180999999999999821e-03
4.176000000000000024e-03
4.186999999999999750e-03
4.189000000000000015e-03
4.199999999999999740e-03
4.190000000000000148e-03
4.167999999999999830e-03
4.166999999999999697e-03
4.185000000000000352e-03
4.199999999999999740e-03
4.183000000000000086e-03
4.174999999999999892e-03
4.189000000000000015e-03
4.202000000000000006e-03
4.204000000000000271e-03
4.192000000000000413e-03
4.177000000000000157e-03
4.202000000000000006e-03
4.218000000000000395e-03
4.217000000000000262e-03
4.205999999999999669e-03
4.194999999999999944e-03
4.209000000000000068e-03
4.230000000000000253e-03
4.250999999999999571e-03
4.237000000000000315e-03
4.226999999999999855e-03
4.232999999999999784e-03
4.248000000000000040e-03
4.257000000000000367e-03
4.251999999999999703e-03
4.245999999999999774e-03
4.257000000000000367e-03
4.282000000000000216e-03
4.295000000000000207e-03
4.294000000000000074e-03
4.284999999999999747e-03
4.303000000000000401e-03
4.322999999999999586e-03
4.330999999999999781e-03
4.316000000000000392e-03
4.309999999999999595e-03
4.333000000000000046e-03
4.349999999999999700e-03
4.357999999999999895e-03
4.357999999999999895e-03
4.354000000000000231e-03
4.369999999999999753e-03
4.394000000000000336e-03
4.416999999999999919e-03
4.408999999999999725e-03
4.405000000000000061e-03
4.413000000000000256e-03
4.431000000000000043e-03
4.446000000000000299e-03
4.444000000000000034e-03
4.442999999999999901e-03
4.445000000000000166e-03
4.457000000000000024e-03
4.467999999999999750e-03
4.453000000000000361e-03
4.435999999999999839e-03
4.439000000000000237e-03
4.453000000000000361e-03
4.453999999999999626e-03
4.421999999999999716e-03
4.389999999999999805e-03
4.381999999999999611e-03
4.381000000000000345e-03
4.364999999999999956e-03
4.320000000000000055e-03
4.284999999999999747e-03
4.289000000000000278e-03
4.308000000000000197e-03
4.303000000000000401e-03
4.270999999999999623e-03
4.257999999999999632e-03
4.250000000000000305e-03
4.251999999999999703e-03
4.239999999999999845e-03
4.224999999999999589e-03
4.216000000000000129e-03
4.222000000000000058e-03
4.229000000000000120e-03
4.236000000000000182e-03
4.236000000000000182e-03
4.222000000000000058e-03
4.231000000000000386e-03
4.250999999999999571e-03
4.252999999999999836e-03
4.229000000000000120e-03
4.229000000000000120e-03
4.238999999999999713e-03
4.249000000000000173e-03
4.249000000000000173e-03
4.244000000000000376e-03
4.238999999999999713e-03
4.235000000000000049e-03
4.245999999999999774e-03
4.262000000000000163e-03
4.237000000000000315e-03
4.214999999999999997e-03
4.229000000000000120e-03
4.258999999999999765e-03
4.257999999999999632e-03
4.245999999999999774e-03
4.224999999999999589e-03
4.233999999999999916e-03
4.259999999999999898e-03
4.259999999999999898e-03
4.227999999999999987e-03
4.206999999999999802e-03
4.224000000000000324e-03
4.248000000000000040e-03
4.258999999999999765e-03
4.239999999999999845e-03
4.231000000000000386e-03
4.226999999999999855e-03
4.238999999999999713e-03
4.250999999999999571e-03
4.235000000000000049e-03
4.222000000000000058e-03
4.224999999999999589e-03
4.233999999999999916e-03
4.235000000000000049e-03
4.231000000000000386e-03
4.225999999999999722e-03
4.230000000000000253e-03
4.242000000000000111e-03
4.242000000000000111e-03
4.223000000000000191e-03
4.212999999999999731e-03
4.213999999999999864e-03
4.238999999999999713e-03
4.251999999999999703e-03
4.225999999999999722e-03
4.204000000000000271e-03
4.207999999999999935e-03
4.227999999999999987e-03
4.230000000000000253e-03
4.206999999999999802e-03
4.197000000000000210e-03
4.211000000000000333e-03
4.230000000000000253e-03
4.250999999999999571e-03
4.231000000000000386e-03
4.218000000000000395e-03
4.217000000000000262e-03
4.238999999999999713e-03
4.242000000000000111e-03
4.225999999999999722e-03
4.224000000000000324e-03
4.237000000000000315e-03
4.256000000000000234e-03
4.258999999999999765e-03
4.226999999999999855e-03
4.218000000000000395e-03
4.237999999999999580e-03
4.262000000000000163e-03
4.253999999999999969e-03
4.223000000000000191e-03
4.211999999999999598e-03
4.220999999999999926e-03
4.242000000000000111e-03
4.250000000000000305e-03
4.233999999999999916e-03
4.212999999999999731e-03
4.218000000000000395e-03
4.246999999999999907e-03
4.264000000000000429e-03
4.245999999999999774e-03
4.233999999999999916e-03
4.237999999999999580e-03
4.249000000000000173e-03
4.249000000000000173e-03
4.227999999999999987e-03
4.213999999999999864e-03
4.232999999999999784e-03
4.251999999999999703e-03
4.257000000000000367e-03
4.238999999999999713e-03
4.236000000000000182e-03
4.231999999999999651e-03
4.245999999999999774e-03
4.256000000000000234e-03
4.236000000000000182e-03
4.244000000000000376e-03
4.251999999999999703e-03
4.258999999999999765e-03
4.270000000000000358e-03
4.250000000000000305e-03
4.233999999999999916e-03
4.235000000000000049e-03
4.261000000000000031e-03
4.271999999999999756e-03
4.256000000000000234e-03
4.243000000000000244e-03
4.251999999999999703e-03
4.264999999999999694e-03
4.252999999999999836e-03
4.245999999999999774e-03
4.242000000000000111e-03
4.250000000000000305e-03
4.270999999999999623e-03
4.277000000000000419e-03
4.248000000000000040e-03
4.231999999999999651e-03
4.242000000000000111e-03
4.261000000000000031e-03
4.264000000000000429e-03
4.248000000000000040e-03
4.257999999999999632e-03
4.289000000000000278e-03
4.337999999999999842e-03
4.335000000000000311e-03
4.298999999999999870e-03
4.302000000000000268e-03
4.322000000000000321e-03
4.334000000000000179e-03
4.322999999999999586e-03
4.279999999999999950e-03
4.252999999999999836e-03
4.250999999999999571e-03
4.270999999999999623e-03
4.277999999999999685e-03
4.271999999999999756e-03
4.270000000000000358e-03
4.281000000000000083e-03
4.289000000000000278e-03
4.278999999999999818e-03
4.255000000000000102e-03
4.253999999999999969e-03
4.264999999999999694e-03
4.277999999999999685e-03
4.279999999999999950e-03
4.257999999999999632e-03
4.243000000000000244e-03
4.257000000000000367e-03
4.270999999999999623e-03
4.270000000000000358e-03
4.242000000000000111e-03
4.239999999999999845e-03
4.264999999999999694e-03
4.277999999999999685e-03
4.291999999999999808e-03
4.249000000000000173e-03
4.181999999999999953e-03
4.137000000000000052e-03
4.198999999999999608e-03
4.298999999999999870e-03
4.415999999999999787e-03
4.625999999999999904e-03
4.912999999999999833e-03
5.249000000000000193e-03
5.568000000000000033e-03
5.636999999999999650e-03
5.240999999999999999e-03
4.843000000000000083e-03
4.483000000000000006e-03
4.289000000000000278e-03
4.294000000000000074e-03
4.346000000000000037e-03
4.379000000000000080e-03
4.389999999999999805e-03
4.368999999999999620e-03
4.337999999999999842e-03
4.329999999999999648e-03
4.327000000000000117e-03
4.328000000000000250e-03
4.331999999999999913e-03
4.322999999999999586e-03
4.305999999999999932e-03
4.314000000000000126e-03
4.346000000000000037e-03
4.342999999999999639e-03
4.322999999999999586e-03
4.312999999999999994e-03
4.322999999999999586e-03
4.342999999999999639e-03
4.353000000000000098e-03
4.331999999999999913e-03
4.317999999999999790e-03
4.342000000000000373e-03
4.366000000000000089e-03
4.366000000000000089e-03
4.350999999999999833e-03
4.355999999999999629e-03
4.363999999999999824e-03
4.377999999999999947e-03
4.375999999999999682e-03
4.355000000000000364e-03
4.354000000000000231e-03
4.364999999999999956e-03
4.388000000000000407e-03
4.387000000000000274e-03
4.369999999999999753e-03
4.368999999999999620e-03
4.387000000000000274e-03
4.409999999999999858e-03
4.406000000000000194e-03
4.390999999999999938e-03
4.385000000000000009e-03
4.383999999999999876e-03
4.408999999999999725e-03
4.420000000000000318e-03
4.406000000000000194e-03
4.409999999999999858e-03
4.416999999999999919e-03
4.429999999999999910e-03
4.429999999999999910e-03
4.406000000000000194e-03
4.422999999999999848e-03
4.447999999999999697e-03
4.473000000000000413e-03
4.488999999999999935e-03
4.483000000000000006e-03
4.479999999999999608e-03
4.488999999999999935e-03
4.507999999999999854e-03
4.510000000000000120e-03
4.506999999999999722e-03
4.500999999999999793e-03
4.514999999999999916e-03
4.543000000000000163e-03
4.564000000000000348e-03
4.545999999999999694e-03
4.537000000000000234e-03
4.553999999999999888e-03
4.577000000000000339e-03
4.569000000000000145e-03
4.553999999999999888e-03
4.551999999999999623e-03
4.564999999999999614e-03
4.570000000000000277e-03
4.550000000000000225e-03
4.519999999999999712e-03
4.493999999999999731e-03
4.500999999999999793e-03
4.503000000000000058e-03
4.474999999999999811e-03
4.445000000000000166e-03
4.422999999999999848e-03
4.416999999999999919e-03
4.416999999999999919e-03
4.400000000000000265e-03
4.375999999999999682e-03
4.372000000000000018e-03
4.375999999999999682e-03
4.380000000000000213e-03
4.368999999999999620e-03
4.351999999999999966e-03
4.346000000000000037e-03
4.359000000000000027e-03
4.370999999999999885e-03
4.361000000000000293e-03
4.344999999999999904e-03
4.336999999999999710e-03
4.353000000000000098e-03
4.380000000000000213e-03
4.380000000000000213e-03
4.368000000000000355e-03
4.360000000000000160e-03
4.362000000000000426e-03
4.377999999999999947e-03
4.382999999999999743e-03
4.362999999999999691e-03
4.356999999999999762e-03
4.370999999999999885e-03
4.380000000000000213e-03
4.379000000000000080e-03
4.364999999999999956e-03
4.361000000000000293e-03
4.380000000000000213e-03
4.396999999999999867e-03
4.388999999999999672e-03
4.359000000000000027e-03
4.355000000000000364e-03
4.373000000000000151e-03
4.388999999999999672e-03
4.386000000000000142e-03
4.362999999999999691e-03
4.351999999999999966e-03
4.362999999999999691e-03
4.383999999999999876e-03
4.379000000000000080e-03
4.349999999999999700e-03
4.341000000000000240e-03
4.366000000000000089e-03
4.380000000000000213e-03
4.370999999999999885e-03
4.348999999999999568e-03
4.342999999999999639e-03
4.360000000000000160e-03
4.377999999999999947e-03
4.370999999999999885e-03
4.347000000000000169e-03
4.333000000000000046e-03
4.355999999999999629e-03
4.373000000000000151e-03
4.355999999999999629e-03
4.337999999999999842e-03
4.330999999999999781e-03
4.348999999999999568e-03
4.375000000000000416e-03
4.368000000000000355e-03
4.353000000000000098e-03
4.342000000000000373e-03
4.350999999999999833e-03
4.376999999999999814e-03
4.370999999999999885e-03
4.356999999999999762e-03
4.344999999999999904e-03
4.362000000000000426e-03
4.372000000000000018e-03
4.356999999999999762e-03
4.340000000000000108e-03
4.336999999999999710e-03
4.347000000000000169e-03
4.368000000000000355e-03
4.362999999999999691e-03
4.348000000000000302e-03
4.338999999999999975e-03
4.348999999999999568e-03
4.362000000000000426e-03
4.361000000000000293e-03
4.336999999999999710e-03
4.320000000000000055e-03
4.342000000000000373e-03
4.375999999999999682e-03
4.381000000000000345e-03
4.361000000000000293e-03
4.355000000000000364e-03
4.369999999999999753e-03
4.383999999999999876e-03
4.373000000000000151e-03
4.350999999999999833e-03
4.343999999999999771e-03
4.367000000000000222e-03
4.389999999999999805e-03
4.376999999999999814e-03
4.350999999999999833e-03
4.354000000000000231e-03
4.366000000000000089e-03
4.387000000000000274e-03
4.376999999999999814e-03
4.364999999999999956e-03
4.370999999999999885e-03
4.382999999999999743e-03
4.396999999999999867e-03
4.381000000000000345e-03
4.361000000000000293e-03
4.363999999999999824e-03
4.374000000000000284e-03
4.375000000000000416e-03
4.375999999999999682e-03
4.372000000000000018e-03
4.355999999999999629e-03
4.373000000000000151e-03
4.395999999999999734e-03
4.381000000000000345e-03
4.356999999999999762e-03
4.348999999999999568e-03
4.375000000000000416e-03
4.407999999999999592e-03
4.387000000000000274e-03
4.373000000000000151e-03
4.366000000000000089e-03
4.375999999999999682e-03
4.393000000000000203e-03
4.385000000000000009e-03
4.362999999999999691e-03
4.355000000000000364e-03
4.368999999999999620e-03
4.385000000000000009e-03
4.386000000000000142e-03
4.364999999999999956e-03
4.363999999999999824e-03
4.382999999999999743e-03
4.401999999999999663e-03
4.388000000000000407e-03
4.357999999999999895e-03
4.349999999999999700e-03
4.359000000000000027e-03
4.381000000000000345e-03
4.392000000000000071e-03
4.402999999999999796e-03
4.427000000000000379e-03
4.441999999999999768e-03
4.447000000000000432e-03
4.442999999999999901e-03
4.428999999999999777e-03
4.414999999999999654e-03
4.403999999999999929e-03
4.400000000000000265e-03
4.381000000000000345e-03
4.360000000000000160e-03
4.354000000000000231e-03
4.370999999999999885e-03
4.387000000000000274e-03
4.394999999999999601e-03
4.386000000000000142e-03
4.376999999999999814e-03
4.380000000000000213e-03
4.381999999999999611e-03
4.368000000000000355e-03
4.349999999999999700e-03
4.348999999999999568e-03
4.362999999999999691e-03
4.382999999999999743e-03
4.376999999999999814e-03
4.355999999999999629e-03
4.360000000000000160e-03
4.369999999999999753e-03
4.387000000000000274e-03
4.374000000000000284e-03
4.354000000000000231e-03
4.347000000000000169e-03
4.359000000000000027e-03
4.376999999999999814e-03
4.330999999999999781e-03
4.244999999999999642e-03
4.264999999999999694e-03
4.375000000000000416e-03
4.485000000000000271e-03
4.664999999999999876e-03
4.925999999999999823e-03
5.257000000000000388e-03
5.628000000000000190e-03
5.821999999999999918e-03
5.442999999999999922e-03
4.998999999999999971e-03
4.610999999999999648e-03
4.388999999999999672e-03
4.414000000000000389e-03
4.475999999999999944e-03
4.479000000000000342e-03
4.460999999999999688e-03
4.453999999999999626e-03
4.448999999999999830e-03
4.436999999999999972e-03
4.420999999999999583e-03
4.421999999999999716e-03
4.434999999999999706e-03
4.440000000000000370e-03
4.427000000000000379e-03
4.410999999999999990e-03
4.405000000000000061e-03
4.420999999999999583e-03
4.433000000000000308e-03
4.429999999999999910e-03
4.415999999999999787e-03
4.409999999999999858e-03
4.423999999999999981e-03
4.444000000000000034e-03
4.433999999999999574e-03
4.420000000000000318e-03
4.420999999999999583e-03
4.433999999999999574e-03
4.451000000000000095e-03
4.436999999999999972e-03
4.427999999999999645e-03
4.438000000000000105e-03
4.459000000000000290e-03
4.470000000000000015e-03
4.454999999999999759e-03
4.429999999999999910e-03
4.434999999999999706e-03
4.459000000000000290e-03
4.468999999999999882e-03
4.453999999999999626e-03
4.444000000000000034e-03
4.449999999999999963e-03
4.470000000000000015e-03
4.480999999999999740e-03
4.491000000000000200e-03
4.495999999999999996e-03
4.488999999999999935e-03
4.501999999999999925e-03
4.518000000000000314e-03
4.518999999999999580e-03
4.510000000000000120e-03
4.498000000000000262e-03
4.525999999999999641e-03
4.539999999999999765e-03
4.530000000000000172e-03
4.513999999999999783e-03
4.505000000000000324e-03
4.526999999999999774e-03
4.558000000000000419e-03
4.543000000000000163e-03
4.526999999999999774e-03
4.534999999999999969e-03
4.562000000000000083e-03
4.584000000000000401e-03
4.590999999999999595e-03
4.579999999999999870e-03
4.590999999999999595e-03
4.606999999999999984e-03
4.619999999999999975e-03
4.619999999999999975e-03
4.608000000000000117e-03
4.615000000000000178e-03
4.634000000000000098e-03
4.640000000000000027e-03
4.616000000000000311e-03
4.593999999999999993e-03
4.602000000000000188e-03
4.609000000000000249e-03
4.603000000000000320e-03
4.570000000000000277e-03
4.527999999999999907e-03
4.518999999999999580e-03
4.526999999999999774e-03
4.524000000000000243e-03
4.498000000000000262e-03
4.468999999999999882e-03
4.451000000000000095e-03
4.453999999999999626e-03
4.466999999999999617e-03
4.440000000000000370e-03
4.400000000000000265e-03
4.407000000000000327e-03
4.433000000000000308e-03
4.440000000000000370e-03
4.426000000000000247e-03
4.427999999999999645e-03
4.418000000000000052e-03
4.431000000000000043e-03
4.440999999999999635e-03
4.427999999999999645e-03
4.401999999999999663e-03
4.401000000000000398e-03
4.415999999999999787e-03
4.428999999999999777e-03
4.414999999999999654e-03
4.401000000000000398e-03
4.409999999999999858e-03
4.427999999999999645e-03
4.434999999999999706e-03
4.426000000000000247e-03
4.400000000000000265e-03
4.390999999999999938e-03
4.408999999999999725e-03
4.412000000000000123e-03
4.409999999999999858e-03
4.407999999999999592e-03
4.401000000000000398e-03
4.403999999999999929e-03
4.408999999999999725e-03
4.408999999999999725e-03
4.394999999999999601e-03
4.388000000000000407e-03
4.408999999999999725e-03
4.418000000000000052e-03
4.407000000000000327e-03
4.392000000000000071e-03
4.379000000000000080e-03
4.402999999999999796e-03
4.418000000000000052e-03
4.403999999999999929e-03
4.383999999999999876e-03
4.376999999999999814e-03
4.388999999999999672e-03
4.394000000000000336e-03
4.381000000000000345e-03
4.362000000000000426e-03
4.370999999999999885e-03
4.394999999999999601e-03
4.398000000000000000e-03
4.380000000000000213e-03
4.354000000000000231e-03
4.350999999999999833e-03
4.375999999999999682e-03
4.388000000000000407e-03
4.368000000000000355e-03
4.343999999999999771e-03
4.351999999999999966e-03
4.370999999999999885e-03
4.388999999999999672e-03
4.381999999999999611e-03
4.360000000000000160e-03
4.354000000000000231e-03
4.367000000000000222e-03
4.372000000000000018e-03
4.359000000000000027e-03
4.331999999999999913e-03
4.335999999999999577e-03
4.359000000000000027e-03
4.362000000000000426e-03
4.342999999999999639e-03
4.320000000000000055e-03
4.330999999999999781e-03
4.354000000000000231e-03
4.375999999999999682e-03
4.364999999999999956e-03
4.346000000000000037e-03
4.350999999999999833e-03
4.357999999999999895e-03
4.362999999999999691e-03
4.355000000000000364e-03
4.340000000000000108e-03
4.340000000000000108e-03
4.342000000000000373e-03
4.355000000000000364e-03
4.344999999999999904e-03
4.328000000000000250e-03
4.342999999999999639e-03
4.366000000000000089e-03
4.376999999999999814e-03
4.355999999999999629e-03
4.334000000000000179e-03
4.328000000000000250e-03
4.337999999999999842e-03
4.347000000000000169e-03
4.328000000000000250e-03
4.317999999999999790e-03
4.316999999999999657e-03
4.338999999999999975e-03
4.351999999999999966e-03
4.331999999999999913e-03
4.324999999999999852e-03
4.322999999999999586e-03
4.336999999999999710e-03
4.341000000000000240e-03
4.321000000000000188e-03
4.307000000000000065e-03
4.310999999999999728e-03
4.330999999999999781e-03
4.346000000000000037e-03
4.327000000000000117e-03
4.316999999999999657e-03
4.322999999999999586e-03
4.334000000000000179e-03
4.331999999999999913e-03
4.316000000000000392e-03
4.303999999999999666e-03
4.303999999999999666e-03
4.316999999999999657e-03
4.327000000000000117e-03
4.304999999999999799e-03
4.292999999999999941e-03
4.307000000000000065e-03
4.327000000000000117e-03
4.342000000000000373e-03
4.316999999999999657e-03
4.305999999999999932e-03
4.295000000000000207e-03
4.302000000000000268e-03
4.308000000000000197e-03
4.320000000000000055e-03
4.323999999999999719e-03
4.340000000000000108e-03
4.370999999999999885e-03
4.382999999999999743e-03
4.388999999999999672e-03
4.374000000000000284e-03
4.356999999999999762e-03
4.348999999999999568e-03
4.334000000000000179e-03
4.316000000000000392e-03
4.290999999999999676e-03
4.271999999999999756e-03
4.285999999999999879e-03
4.314000000000000126e-03
4.303999999999999666e-03
4.283000000000000348e-03
4.271999999999999756e-03
4.284999999999999747e-03
4.291999999999999808e-03
4.269000000000000225e-03
4.253999999999999969e-03
4.258999999999999765e-03
4.288000000000000145e-03
4.298999999999999870e-03
4.277999999999999685e-03
4.253999999999999969e-03
4.256000000000000234e-03
4.283000000000000348e-03
4.284999999999999747e-03
4.270000000000000358e-03
4.250000000000000305e-03
4.257000000000000367e-03
4.289000000000000278e-03
4.292999999999999941e-03
4.271999999999999756e-03
4.205000000000000404e-03
4.150000000000000043e-03
4.194999999999999944e-03
4.314000000000000126e-03
4.435999999999999839e-03
4.619999999999999975e-03
4.921000000000000027e-03
5.253999999999999990e-03
5.629000000000000323e-03
5.838000000000000307e-03
5.519999999999999733e-03
5.037999999999999944e-03
4.627000000000000036e-03
4.360000000000000160e-03
4.265999999999999827e-03
4.291999999999999808e-03
4.346000000000000037e-03
4.372000000000000018e-03
4.356999999999999762e-03
4.330999999999999781e-03
4.320000000000000055e-03
4.310999999999999728e-03
4.317999999999999790e-03
4.329000000000000382e-03
4.304999999999999799e-03
4.275000000000000154e-03
4.295000000000000207e-03
4.321000000000000188e-03
4.324999999999999852e-03
4.303000000000000401e-03
4.284999999999999747e-03
4.303999999999999666e-03
4.315000000000000259e-03
4.303999999999999666e-03
4.289000000000000278e-03
4.285999999999999879e-03
4.301000000000000136e-03
4.327000000000000117e-03
4.329999999999999648e-03
4.309999999999999595e-03
4.300000000000000003e-03
4.303999999999999666e-03
4.325999999999999984e-03
4.331999999999999913e-03
4.316000000000000392e-03
4.300000000000000003e-03
4.294000000000000074e-03
4.328000000000000250e-03
4.335000000000000311e-03
4.320000000000000055e-03
4.310999999999999728e-03
4.323999999999999719e-03
4.353000000000000098e-03
4.353000000000000098e-03
4.335000000000000311e-03
4.318999999999999923e-03
4.329999999999999648e-03
4.353000000000000098e-03
4.360000000000000160e-03
4.357999999999999895e-03
4.346000000000000037e-03
4.343999999999999771e-03
4.364999999999999956e-03
4.375999999999999682e-03
4.368999999999999620e-03
4.355999999999999629e-03
4.362999999999999691e-03
4.392000000000000071e-03
4.388000000000000407e-03
4.367000000000000222e-03
4.376999999999999814e-03
4.399000000000000132e-03
4.416999999999999919e-03
4.414999999999999654e-03
4.396999999999999867e-03
4.395999999999999734e-03
4.415999999999999787e-03
4.428999999999999777e-03
4.445000000000000166e-03
4.432000000000000176e-03
4.433000000000000308e-03
4.455999999999999892e-03
4.471000000000000148e-03
4.492999999999999598e-03
4.468999999999999882e-03
4.436999999999999972e-03
4.431000000000000043e-03
4.444000000000000034e-03
4.455999999999999892e-03
4.427999999999999645e-03
4.393000000000000203e-03
4.396999999999999867e-03
4.402999999999999796e-03
4.399000000000000132e-03
4.383999999999999876e-03
4.342000000000000373e-03
4.333000000000000046e-03
4.328000000000000250e-03
4.307000000000000065e-03
4.297999999999999737e-03
4.272999999999999889e-03
4.266999999999999960e-03
4.291999999999999808e-03
4.287000000000000012e-03
4.268000000000000092e-03
4.250000000000000305e-03
4.251999999999999703e-03
4.264000000000000429e-03
4.270999999999999623e-03
4.257000000000000367e-03
4.243000000000000244e-03
4.262000000000000163e-03
4.292999999999999941e-03
4.275000000000000154e-03
4.235000000000000049e-03
4.220999999999999926e-03
4.237999999999999580e-03
4.256000000000000234e-03
4.258999999999999765e-03
4.251999999999999703e-03
4.233999999999999916e-03
4.244000000000000376e-03
4.262000000000000163e-03
4.274000000000000021e-03
4.250000000000000305e-03
4.243000000000000244e-03
4.249000000000000173e-03
4.259999999999999898e-03
4.263000000000000296e-03
4.236000000000000182e-03
4.220999999999999926e-03
4.233999999999999916e-03
4.248000000000000040e-03
4.271999999999999756e-03
4.263000000000000296e-03
4.231000000000000386e-03
4.237999999999999580e-03
4.256000000000000234e-03
4.257000000000000367e-03
4.245999999999999774e-03
4.220999999999999926e-03
4.209000000000000068e-03
4.233999999999999916e-03
4.244000000000000376e-03
4.235000000000000049e-03
4.240999999999999978e-03
4.243000000000000244e-03
4.239999999999999845e-03
4.239999999999999845e-03
4.218000000000000395e-03
4.207999999999999935e-03
4.230000000000000253e-03
4.240999999999999978e-03
4.236000000000000182e-03
4.206999999999999802e-03
4.214999999999999997e-03
4.227999999999999987e-03
4.245999999999999774e-03
4.242000000000000111e-03
4.211999999999999598e-03
4.197000000000000210e-03
4.210000000000000200e-03
4.233999999999999916e-03
4.231000000000000386e-03
4.209000000000000068e-03
4.180999999999999821e-03
4.210000000000000200e-03
4.244999999999999642e-03
4.236000000000000182e-03
4.212999999999999731e-03
4.205999999999999669e-03
4.220999999999999926e-03
4.244999999999999642e-03
4.248000000000000040e-03
4.242000000000000111e-03
4.224000000000000324e-03
4.229000000000000120e-03
4.240999999999999978e-03
4.237999999999999580e-03
4.223000000000000191e-03
4.217000000000000262e-03
4.239999999999999845e-03
4.256000000000000234e-03
4.251999999999999703e-03
4.235000000000000049e-03
4.210000000000000200e-03
4.219999999999999793e-03
4.239999999999999845e-03
4.246999999999999907e-03
4.236000000000000182e-03
4.226999999999999855e-03
4.231999999999999651e-03
4.235000000000000049e-03
4.245999999999999774e-03
4.233999999999999916e-03
4.229000000000000120e-03
4.239999999999999845e-03
4.256000000000000234e-03
4.255000000000000102e-03
4.231000000000000386e-03
4.214999999999999997e-03
4.218999999999999660e-03
4.248000000000000040e-03
4.269000000000000225e-03
4.277000000000000419e-03
4.283999999999999614e-03
4.279999999999999950e-03
4.294000000000000074e-03
4.329000000000000382e-03
4.314000000000000126e-03
4.277999999999999685e-03
4.270999999999999623e-03
4.278999999999999818e-03
4.279999999999999950e-03
4.252999999999999836e-03
4.212999999999999731e-03
4.226999999999999855e-03
4.269000000000000225e-03
4.271999999999999756e-03
4.243000000000000244e-03
4.216000000000000129e-03
4.224999999999999589e-03
4.239999999999999845e-03
4.223000000000000191e-03
4.194999999999999944e-03
4.196000000000000077e-03
4.210000000000000200e-03
4.226999999999999855e-03
4.223000000000000191e-03
4.200999999999999873e-03
4.207999999999999935e-03
4.237000000000000315e-03
4.245999999999999774e-03
4.226999999999999855e-03
4.216000000000000129e-03
4.205000000000000404e-03
4.211000000000000333e-03
4.225999999999999722e-03
4.193999999999999811e-03
4.107999999999999673e-03
4.089999999999999886e-03
4.205000000000000404e-03
4.363999999999999824e-03
4.565999999999999746e-03
4.826999999999999694e-03
5.121999999999999817e-03
5.444000000000000054e-03
5.786999999999999610e-03
5.688999999999999613e-03
5.192999999999999700e-03
4.714999999999999573e-03
4.385000000000000009e-03
4.246999999999999907e-03
4.251999999999999703e-03
4.292999999999999941e-03
4.301000000000000136e-03
4.317999999999999790e-03
4.321000000000000188e-03
4.309000000000000330e-03
4.281000000000000083e-03
4.272999999999999889e-03
4.284999999999999747e-03
4.303999999999999666e-03
4.302000000000000268e-03
4.272999999999999889e-03
4.269000000000000225e-03
4.288000000000000145e-03
4.318999999999999923e-03
4.312999999999999994e-03
4.272999999999999889e-03
4.257999999999999632e-03
4.283999999999999614e-03
4.318999999999999923e-03
4.320000000000000055e-03
4.296999999999999605e-03
4.283999999999999614e-03
4.281000000000000083e-03
4.298999999999999870e-03
4.303000000000000401e-03
4.296999999999999605e-03
4.288000000000000145e-03
4.290000000000000410e-03
4.304999999999999799e-03
4.317999999999999790e-03
4.303999999999999666e-03
4.297999999999999737e-03
4.310999999999999728e-03
4.343999999999999771e-03
4.342999999999999639e-03
4.331999999999999913e-03
4.328000000000000250e-03
4.355999999999999629e-03
4.375999999999999682e-03
4.374000000000000284e-03
4.362999999999999691e-03
4.351999999999999966e-03
4.374000000000000284e-03
4.406000000000000194e-03
4.390999999999999938e-03
4.375000000000000416e-03
4.369999999999999753e-03
4.388999999999999672e-03
4.421999999999999716e-03
4.436999999999999972e-03
4.418000000000000052e-03
4.401000000000000398e-03
4.405000000000000061e-03
4.426000000000000247e-03
4.434999999999999706e-03
4.433999999999999574e-03
4.438000000000000105e-03
4.453999999999999626e-03
4.466999999999999617e-03
4.462999999999999953e-03
4.447999999999999697e-03
4.447000000000000432e-03
4.472000000000000280e-03
4.492000000000000333e-03
4.495999999999999996e-03
4.480999999999999740e-03
4.479999999999999608e-03
4.503000000000000058e-03
4.525000000000000376e-03
4.517000000000000182e-03
4.497000000000000129e-03
4.490000000000000067e-03
4.506999999999999722e-03
4.516000000000000049e-03
4.497000000000000129e-03
4.457000000000000024e-03
4.427000000000000379e-03
4.420000000000000318e-03
4.420999999999999583e-03
4.408999999999999725e-03
4.377999999999999947e-03
4.353000000000000098e-03
4.360000000000000160e-03
4.381999999999999611e-03
4.368000000000000355e-03
4.337999999999999842e-03
4.325999999999999984e-03
4.335999999999999577e-03
4.348999999999999568e-03
4.341000000000000240e-03
4.321000000000000188e-03
4.315000000000000259e-03
4.334000000000000179e-03
4.348000000000000302e-03
4.344999999999999904e-03
4.318999999999999923e-03
4.307000000000000065e-03
4.327000000000000117e-03
4.344999999999999904e-03
4.347000000000000169e-03
4.327000000000000117e-03
4.312999999999999994e-03
4.324999999999999852e-03
4.348000000000000302e-03
4.337999999999999842e-03
4.314000000000000126e-03
4.307000000000000065e-03
4.322000000000000321e-03
4.327000000000000117e-03
4.329999999999999648e-03
4.314000000000000126e-03
4.303999999999999666e-03
4.331999999999999913e-03
4.355999999999999629e-03
4.348999999999999568e-03
4.334000000000000179e-03
4.317999999999999790e-03
4.325999999999999984e-03
4.340000000000000108e-03
4.335999999999999577e-03
4.315000000000000259e-03
4.309000000000000330e-03
4.325999999999999984e-03
4.338999999999999975e-03
4.338999999999999975e-03
4.317999999999999790e-03
4.318999999999999923e-03
4.329000000000000382e-03
4.333000000000000046e-03
4.333000000000000046e-03
4.317999999999999790e-03
4.305999999999999932e-03
4.323999999999999719e-03
4.349999999999999700e-03
4.342999999999999639e-03
4.316000000000000392e-03
4.308000000000000197e-03
4.325999999999999984e-03
4.337999999999999842e-03
4.338999999999999975e-03
4.323999999999999719e-03
4.311999999999999861e-03
4.322999999999999586e-03
4.340000000000000108e-03
4.330999999999999781e-03
4.316999999999999657e-03
4.315000000000000259e-03
4.328000000000000250e-03
4.330999999999999781e-03
4.324999999999999852e-03
4.323999999999999719e-03
4.318999999999999923e-03
4.329999999999999648e-03
4.342000000000000373e-03
4.328000000000000250e-03
4.311999999999999861e-03
4.315000000000000259e-03
4.341000000000000240e-03
4.361000000000000293e-03
4.346000000000000037e-03
4.315000000000000259e-03
4.308000000000000197e-03
4.320000000000000055e-03
4.334000000000000179e-03
4.322000000000000321e-03
4.314000000000000126e-03
4.316999999999999657e-03
4.325999999999999984e-03
4.337999999999999842e-03
4.335999999999999577e-03
4.321000000000000188e-03
4.322999999999999586e-03
4.349999999999999700e-03
4.348999999999999568e-03
4.335000000000000311e-03
4.317999999999999790e-03
4.316000000000000392e-03
4.329999999999999648e-03
4.338999999999999975e-03
4.328000000000000250e-03
4.315000000000000259e-03
4.312999999999999994e-03
4.335000000000000311e-03
4.349999999999999700e-03
4.330999999999999781e-03
4.309000000000000330e-03
4.304999999999999799e-03
4.322000000000000321e-03
4.320000000000000055e-03
4.316000000000000392e-03
4.307000000000000065e-03
4.295000000000000207e-03
4.315000000000000259e-03
4.355000000000000364e-03
4.369999999999999753e-03
4.373000000000000151e-03
4.368999999999999620e-03
4.393000000000000203e-03
4.409999999999999858e-03
4.400000000000000265e-03
4.383999999999999876e-03
4.368999999999999620e-03
4.362999999999999691e-03
4.342999999999999639e-03
4.322999999999999586e-03
4.322999999999999586e-03
4.321000000000000188e-03
4.329000000000000382e-03
4.341000000000000240e-03
4.329999999999999648e-03
4.311999999999999861e-03
4.309999999999999595e-03
4.320000000000000055e-03
4.316000000000000392e-03
4.304999999999999799e-03
4.278999999999999818e-03
4.272999999999999889e-03
4.296999999999999605e-03
4.325999999999999984e-03
4.314000000000000126e-03
4.296000000000000339e-03
4.290999999999999676e-03
4.302000000000000268e-03
4.340000000000000108e-03
4.322000000000000321e-03
4.295000000000000207e-03
4.290000000000000410e-03
4.287000000000000012e-03
4.263000000000000296e-03
4.191000000000000281e-03
4.186999999999999750e-03
4.302000000000000268e-03
4.446000000000000299e-03
4.648000000000000222e-03
4.910999999999999567e-03
5.220999999999999946e-03
5.563000000000000236e-03
5.801999999999999866e-03
5.499000000000000415e-03
5.028000000000000351e-03
4.608000000000000117e-03
4.344999999999999904e-03
4.355999999999999629e-03
4.438000000000000105e-03
4.440999999999999635e-03
4.413000000000000256e-03
4.394000000000000336e-03
4.394999999999999601e-03
4.407000000000000327e-03
4.389999999999999805e-03
4.362000000000000426e-03
4.354000000000000231e-03
4.381999999999999611e-03
4.389999999999999805e-03
4.367000000000000222e-03
4.355999999999999629e-03
4.354000000000000231e-03
4.375999999999999682e-03
4.383999999999999876e-03
4.373000000000000151e-03
4.359000000000000027e-03
4.360000000000000160e-03
4.381999999999999611e-03
4.407000000000000327e-03
4.398000000000000000e-03
4.374000000000000284e-03
4.380000000000000213e-03
4.394999999999999601e-03
4.413000000000000256e-03
4.400000000000000265e-03
4.369999999999999753e-03
4.367000000000000222e-03
4.394999999999999601e-03
4.413000000000000256e-03
4.401000000000000398e-03
4.388000000000000407e-03
4.393000000000000203e-03
4.402999999999999796e-03
4.418000000000000052e-03
4.416999999999999919e-03
4.405000000000000061e-03
4.410999999999999990e-03
4.441999999999999768e-03
4.465000000000000219e-03
4.455999999999999892e-03
4.441999999999999768e-03
4.453000000000000361e-03
4.465000000000000219e-03
4.478000000000000209e-03
4.477000000000000077e-03
4.465000000000000219e-03
4.470000000000000015e-03
4.486999999999999669e-03
4.503000000000000058e-03
4.497000000000000129e-03
4.498000000000000262e-03
4.505000000000000324e-03
4.523000000000000111e-03
4.550000000000000225e-03
4.530000000000000172e-03
4.513999999999999783e-03
4.531000000000000305e-03
4.552999999999999756e-03
4.572999999999999808e-03
4.564000000000000348e-03
4.560999999999999950e-03
4.558000000000000419e-03
4.584000000000000401e-03
4.603999999999999586e-03
4.603000000000000320e-03
4.583000000000000268e-03
4.579999999999999870e-03
4.610999999999999648e-03
4.618999999999999842e-03
4.595000000000000126e-03
4.564999999999999614e-03
4.563000000000000216e-03
4.571999999999999675e-03
4.563000000000000216e-03
4.527999999999999907e-03
4.485000000000000271e-03
4.462999999999999953e-03
4.473000000000000413e-03
4.468999999999999882e-03
4.442999999999999901e-03
4.413000000000000256e-03
4.401999999999999663e-03
4.408999999999999725e-03
4.415999999999999787e-03
4.386000000000000142e-03
4.372000000000000018e-03
4.381000000000000345e-03
4.385000000000000009e-03
4.388000000000000407e-03
4.369999999999999753e-03
4.362999999999999691e-03
4.377999999999999947e-03
4.377999999999999947e-03
4.376999999999999814e-03
4.355999999999999629e-03
4.347000000000000169e-03
4.357999999999999895e-03
4.377999999999999947e-03
4.393000000000000203e-03
4.376999999999999814e-03
4.357999999999999895e-03
4.357999999999999895e-03
4.388000000000000407e-03
4.400000000000000265e-03
4.375000000000000416e-03
4.370999999999999885e-03
4.370999999999999885e-03
4.374000000000000284e-03
4.375999999999999682e-03
4.366000000000000089e-03
4.350999999999999833e-03
4.354000000000000231e-03
4.374000000000000284e-03
4.380000000000000213e-03
4.372000000000000018e-03
4.348999999999999568e-03
4.346000000000000037e-03
4.368999999999999620e-03
4.383999999999999876e-03
4.373000000000000151e-03
4.350999999999999833e-03
4.348999999999999568e-03
4.362000000000000426e-03
4.375000000000000416e-03
4.361000000000000293e-03
4.342000000000000373e-03
4.353000000000000098e-03
4.370999999999999885e-03
4.375999999999999682e-03
4.368000000000000355e-03
4.348000000000000302e-03
4.348999999999999568e-03
4.360000000000000160e-03
4.359000000000000027e-03
4.343999999999999771e-03
4.335000000000000311e-03
4.343999999999999771e-03
4.354000000000000231e-03
4.374000000000000284e-03
4.355000000000000364e-03
4.329000000000000382e-03
4.336999999999999710e-03
4.355999999999999629e-03
4.364999999999999956e-03
4.357999999999999895e-03
4.342000000000000373e-03
4.335999999999999577e-03
4.349999999999999700e-03
4.355999999999999629e-03
4.348000000000000302e-03
4.334000000000000179e-03
4.337999999999999842e-03
4.350999999999999833e-03
4.368999999999999620e-03
4.354000000000000231e-03
4.335999999999999577e-03
4.327000000000000117e-03
4.335999999999999577e-03
4.343999999999999771e-03
4.335000000000000311e-03
4.322000000000000321e-03
4.329000000000000382e-03
4.366000000000000089e-03
4.374000000000000284e-03
4.349999999999999700e-03
4.341000000000000240e-03
4.338999999999999975e-03
4.349999999999999700e-03
4.366000000000000089e-03
4.351999999999999966e-03
4.333000000000000046e-03
4.342000000000000373e-03
4.351999999999999966e-03
4.354000000000000231e-03
4.342999999999999639e-03
4.330999999999999781e-03
4.328000000000000250e-03
4.355999999999999629e-03
4.375999999999999682e-03
4.366000000000000089e-03
4.347000000000000169e-03
4.342999999999999639e-03
4.359000000000000027e-03
4.369999999999999753e-03
4.360000000000000160e-03
4.336999999999999710e-03
4.330999999999999781e-03
4.357999999999999895e-03
4.369999999999999753e-03
4.341000000000000240e-03
4.322999999999999586e-03
4.338999999999999975e-03
4.370999999999999885e-03
4.381000000000000345e-03
4.355999999999999629e-03
4.337999999999999842e-03
4.338999999999999975e-03
4.355999999999999629e-03
4.366000000000000089e-03
4.343999999999999771e-03
4.327000000000000117e-03
4.327000000000000117e-03
4.342999999999999639e-03
4.353000000000000098e-03
4.361000000000000293e-03
4.379000000000000080e-03
4.403999999999999929e-03
4.405000000000000061e-03
4.407000000000000327e-03
4.408999999999999725e-03
4.386000000000000142e-03
4.393000000000000203e-03
4.412000000000000123e-03
4.381999999999999611e-03
4.342999999999999639e-03
4.316999999999999657e-03
4.329000000000000382e-03
4.347000000000000169e-03
4.356999999999999762e-03
4.354000000000000231e-03
4.337999999999999842e-03
4.340000000000000108e-03
4.350999999999999833e-03
4.361000000000000293e-03
4.336999999999999710e-03
4.316999999999999657e-03
4.324999999999999852e-03
4.342000000000000373e-03
4.346000000000000037e-03
4.330999999999999781e-03
4.311999999999999861e-03
4.314000000000000126e-03
4.342000000000000373e-03
4.349999999999999700e-03
4.337999999999999842e-03
4.323999999999999719e-03
4.327000000000000117e-03
4.333000000000000046e-03
4.338999999999999975e-03
4.294000000000000074e-03
4.212999999999999731e-03
4.225999999999999722e-03
4.342000000000000373e-03
4.434999999999999706e-03
4.591999999999999728e-03
4.832999999999999623e-03
5.155999999999999993e-03
5.531999999999999591e-03
5.793999999999999671e-03
5.487999999999999823e-03
5.033000000000000147e-03
4.656000000000000416e-03
4.386000000000000142e-03
4.361000000000000293e-03
4.420000000000000318e-03
4.427000000000000379e-03
4.432000000000000176e-03
4.436999999999999972e-03
4.431000000000000043e-03
4.412000000000000123e-03
4.396999999999999867e-03
4.388999999999999672e-03
4.394000000000000336e-03
4.401999999999999663e-03
4.386000000000000142e-03
4.372000000000000018e-03
4.382999999999999743e-03
4.406000000000000194e-03
4.400000000000000265e-03
4.388999999999999672e-03
4.383999999999999876e-03
4.401000000000000398e-03
4.426000000000000247e-03
4.422999999999999848e-03
4.405000000000000061e-03
4.387000000000000274e-03
4.392000000000000071e-03
4.412000000000000123e-03
4.420000000000000318e-03
4.407000000000000327e-03
4.400000000000000265e-03
4.412000000000000123e-03
4.426000000000000247e-03
4.436999999999999972e-03
4.425000000000000114e-03
4.421999999999999716e-03
4.429999999999999910e-03
4.439000000000000237e-03
4.447000000000000432e-03
4.436999999999999972e-03
4.420999999999999583e-03
4.434999999999999706e-03
4.462999999999999953e-03
4.474999999999999811e-03
4.462999999999999953e-03
4.445000000000000166e-03
4.448999999999999830e-03
4.465000000000000219e-03
4.473000000000000413e-03
4.470000000000000015e-03
4.460999999999999688e-03
4.465000000000000219e-03
4.486999999999999669e-03
4.493999999999999731e-03
4.483000000000000006e-03
4.480999999999999740e-03
4.488999999999999935e-03
4.512999999999999651e-03
4.536000000000000101e-03
4.517000000000000182e-03
4.505999999999999589e-03
4.503000000000000058e-03
4.523000000000000111e-03
4.543000000000000163e-03
4.542000000000000030e-03
4.538000000000000367e-03
4.553999999999999888e-03
4.582000000000000135e-03
4.598999999999999790e-03
4.584000000000000401e-03
4.568000000000000012e-03
4.576000000000000206e-03
4.609000000000000249e-03
4.608000000000000117e-03
4.576000000000000206e-03
4.572999999999999808e-03
4.571999999999999675e-03
4.575000000000000074e-03
4.572999999999999808e-03
4.549000000000000092e-03
4.521999999999999978e-03
4.525999999999999641e-03
4.526999999999999774e-03
4.512999999999999651e-03
4.477000000000000077e-03
4.440999999999999635e-03
4.432000000000000176e-03
4.458000000000000157e-03
4.474999999999999811e-03
4.435999999999999839e-03
4.398000000000000000e-03
4.402999999999999796e-03
4.423999999999999981e-03
4.426000000000000247e-03
4.402999999999999796e-03
4.381999999999999611e-03
4.385000000000000009e-03
4.414999999999999654e-03
4.421999999999999716e-03
4.409999999999999858e-03
4.395999999999999734e-03
4.399000000000000132e-03
4.407999999999999592e-03
4.416999999999999919e-03
4.405000000000000061e-03
4.393000000000000203e-03
4.396999999999999867e-03
4.406000000000000194e-03
4.415999999999999787e-03
4.401000000000000398e-03
4.387000000000000274e-03
4.396999999999999867e-03
4.408999999999999725e-03
4.413000000000000256e-03
4.401000000000000398e-03
4.381999999999999611e-03
4.383999999999999876e-03
4.402999999999999796e-03
4.409999999999999858e-03
4.396999999999999867e-03
4.385000000000000009e-03
4.390999999999999938e-03
4.401000000000000398e-03
4.406000000000000194e-03
4.394999999999999601e-03
4.374000000000000284e-03
4.372000000000000018e-03
4.396999999999999867e-03
4.414999999999999654e-03
4.382999999999999743e-03
4.356999999999999762e-03
4.366000000000000089e-03
4.396999999999999867e-03
4.406000000000000194e-03
4.381000000000000345e-03
4.363999999999999824e-03
4.376999999999999814e-03
4.393000000000000203e-03
4.389999999999999805e-03
4.377999999999999947e-03
4.364999999999999956e-03
4.374000000000000284e-03
4.385000000000000009e-03
4.388999999999999672e-03
4.370999999999999885e-03
4.351999999999999966e-03
4.360000000000000160e-03
4.389999999999999805e-03
4.398000000000000000e-03
4.381000000000000345e-03
4.372000000000000018e-03
4.368000000000000355e-03
4.379000000000000080e-03
4.388999999999999672e-03
4.366000000000000089e-03
4.348000000000000302e-03
4.357999999999999895e-03
4.383999999999999876e-03
4.387000000000000274e-03
4.368999999999999620e-03
4.353000000000000098e-03
4.364999999999999956e-03
4.386000000000000142e-03
4.387000000000000274e-03
4.367000000000000222e-03
4.350999999999999833e-03
4.356999999999999762e-03
4.380000000000000213e-03
4.375999999999999682e-03
4.367000000000000222e-03
4.362000000000000426e-03
4.366000000000000089e-03
4.377999999999999947e-03
4.381000000000000345e-03
4.364999999999999956e-03
4.355000000000000364e-03
4.361000000000000293e-03
4.382999999999999743e-03
4.382999999999999743e-03
4.361000000000000293e-03
4.354000000000000231e-03
4.359000000000000027e-03
4.370999999999999885e-03
4.369999999999999753e-03
4.355999999999999629e-03
4.346000000000000037e-03
4.369999999999999753e-03
4.393000000000000203e-03
4.390999999999999938e-03
4.362000000000000426e-03
4.334000000000000179e-03
4.348000000000000302e-03
4.359000000000000027e-03
4.364999999999999956e-03
4.349999999999999700e-03
4.346000000000000037e-03
4.355000000000000364e-03
4.359000000000000027e-03
4.355999999999999629e-03
4.337999999999999842e-03
4.335000000000000311e-03
4.353000000000000098e-03
4.368999999999999620e-03
4.372000000000000018e-03
4.353000000000000098e-03
4.329000000000000382e-03
4.354000000000000231e-03
4.374000000000000284e-03
4.375999999999999682e-03
4.342000000000000373e-03
4.309000000000000330e-03
4.328000000000000250e-03
4.366000000000000089e-03
4.389999999999999805e-03
4.388999999999999672e-03
4.390999999999999938e-03
4.407000000000000327e-03
4.433999999999999574e-03
4.429999999999999910e-03
4.395999999999999734e-03
4.368000000000000355e-03
4.370999999999999885e-03
4.375999999999999682e-03
4.361000000000000293e-03
4.325999999999999984e-03
4.322999999999999586e-03
4.348999999999999568e-03
4.364999999999999956e-03
4.362000000000000426e-03
4.341000000000000240e-03
4.321000000000000188e-03
4.335000000000000311e-03
4.347000000000000169e-03
4.335999999999999577e-03
4.316000000000000392e-03
4.300000000000000003e-03
4.317999999999999790e-03
4.336999999999999710e-03
4.330999999999999781e-03
4.305999999999999932e-03
4.295000000000000207e-03
4.311999999999999861e-03
4.335999999999999577e-03
4.348000000000000302e-03
4.323999999999999719e-03
4.310999999999999728e-03
4.321000000000000188e-03
4.303999999999999666e-03
4.250999999999999571e-03
4.203000000000000139e-03
4.269000000000000225e-03
4.380000000000000213e-03
4.523000000000000111e-03
4.761999999999999740e-03
5.042999999999999740e-03
5.373000000000000172e-03
5.760000000000000363e-03
5.812000000000000326e-03
5.386000000000000162e-03
4.934000000000000018e-03
4.517000000000000182e-03
4.310999999999999728e-03
4.324999999999999852e-03
4.385000000000000009e-03
4.407999999999999592e-03
4.396999999999999867e-03
4.389999999999999805e-03
4.400000000000000265e-03
4.393000000000000203e-03
4.362000000000000426e-03
4.342999999999999639e-03
4.360000000000000160e-03
4.375000000000000416e-03
4.385000000000000009e-03
4.367000000000000222e-03
4.344999999999999904e-03
4.350999999999999833e-03
4.375999999999999682e-03
4.368999999999999620e-03
4.349999999999999700e-03
4.355999999999999629e-03
4.375999999999999682e-03
4.394999999999999601e-03
4.381000000000000345e-03
4.355000000000000364e-03
4.341000000000000240e-03
4.342999999999999639e-03
4.370999999999999885e-03
4.380000000000000213e-03
4.356999999999999762e-03
4.342999999999999639e-03
4.368000000000000355e-03
4.387000000000000274e-03
4.386000000000000142e-03
4.373000000000000151e-03
4.370999999999999885e-03
4.381999999999999611e-03
4.401999999999999663e-03
4.403999999999999929e-03
4.375999999999999682e-03
4.368999999999999620e-03
4.389999999999999805e-03
4.427999999999999645e-03
4.425000000000000114e-03
4.401999999999999663e-03
4.401000000000000398e-03
4.410999999999999990e-03
4.428999999999999777e-03
4.422999999999999848e-03
4.407999999999999592e-03
4.408999999999999725e-03
4.428999999999999777e-03
4.448999999999999830e-03
4.459000000000000290e-03
4.445000000000000166e-03
4.446000000000000299e-03
4.462999999999999953e-03
4.470000000000000015e-03
4.474999999999999811e-03
4.464000000000000086e-03
4.451000000000000095e-03
4.466000000000000351e-03
4.486999999999999669e-03
4.499999999999999660e-03
4.491000000000000200e-03
4.485000000000000271e-03
4.501999999999999925e-03
4.530000000000000172e-03
4.527999999999999907e-03
4.511000000000000253e-03
4.503000000000000058e-03
4.514999999999999916e-03
4.533999999999999836e-03
4.529000000000000040e-03
4.516000000000000049e-03
4.499000000000000395e-03
4.492000000000000333e-03
4.505999999999999589e-03
4.498000000000000262e-03
4.455999999999999892e-03
4.432000000000000176e-03
4.423999999999999981e-03
4.416999999999999919e-03
4.398000000000000000e-03
4.370999999999999885e-03
4.360000000000000160e-03
4.366000000000000089e-03
4.361000000000000293e-03
4.350999999999999833e-03
4.342000000000000373e-03
4.333000000000000046e-03
4.333000000000000046e-03
4.344999999999999904e-03
4.329000000000000382e-03
4.298999999999999870e-03
4.292999999999999941e-03
4.310999999999999728e-03
4.333000000000000046e-03
4.335000000000000311e-03
4.318999999999999923e-03
4.307000000000000065e-03
4.317999999999999790e-03
4.335000000000000311e-03
4.320000000000000055e-03
4.309000000000000330e-03
4.310999999999999728e-03
4.316999999999999657e-03
4.328000000000000250e-03
4.328000000000000250e-03
4.302000000000000268e-03
4.290000000000000410e-03
4.300000000000000003e-03
4.329999999999999648e-03
4.312999999999999994e-03
4.278999999999999818e-03
4.272999999999999889e-03
4.311999999999999861e-03
4.330999999999999781e-03
4.309000000000000330e-03
4.272999999999999889e-03
4.269000000000000225e-03
4.300000000000000003e-03
4.317999999999999790e-03
4.312999999999999994e-03
4.279999999999999950e-03
4.277000000000000419e-03
4.303000000000000401e-03
4.308000000000000197e-03
4.312999999999999994e-03
4.276000000000000287e-03
4.264999999999999694e-03
4.283000000000000348e-03
4.302000000000000268e-03
4.307000000000000065e-03
4.287000000000000012e-03
4.272999999999999889e-03
4.277999999999999685e-03
4.287000000000000012e-03
4.275000000000000154e-03
4.271999999999999756e-03
4.269000000000000225e-03
4.282000000000000216e-03
4.303000000000000401e-03
4.292999999999999941e-03
4.264000000000000429e-03
4.244999999999999642e-03
4.272999999999999889e-03
4.295000000000000207e-03
4.285999999999999879e-03
4.277000000000000419e-03
4.268000000000000092e-03
4.259999999999999898e-03
4.264999999999999694e-03
4.272999999999999889e-03
4.257000000000000367e-03
4.255000000000000102e-03
4.279999999999999950e-03
4.295000000000000207e-03
4.281000000000000083e-03
4.262000000000000163e-03
4.253999999999999969e-03
4.264999999999999694e-03
4.279999999999999950e-03
4.272999999999999889e-03
4.238999999999999713e-03
4.237000000000000315e-03
4.262000000000000163e-03
4.274000000000000021e-03
4.262000000000000163e-03
4.246999999999999907e-03
4.250999999999999571e-03
4.263000000000000296e-03
4.263000000000000296e-03
4.253999999999999969e-03
4.239999999999999845e-03
4.240999999999999978e-03
4.270000000000000358e-03
4.282000000000000216e-03
4.264000000000000429e-03
4.232999999999999784e-03
4.245999999999999774e-03
4.276000000000000287e-03
4.289000000000000278e-03
4.278999999999999818e-03
4.252999999999999836e-03
4.237999999999999580e-03
4.263000000000000296e-03
4.276000000000000287e-03
4.251999999999999703e-03
4.231999999999999651e-03
4.217000000000000262e-03
4.239999999999999845e-03
4.283999999999999614e-03
4.308000000000000197e-03
4.311999999999999861e-03
4.290000000000000410e-03
4.298999999999999870e-03
4.329000000000000382e-03
4.346000000000000037e-03
4.321000000000000188e-03
4.298999999999999870e-03
4.287000000000000012e-03
4.295000000000000207e-03
4.277999999999999685e-03
4.256000000000000234e-03
4.245999999999999774e-03
4.275000000000000154e-03
4.295000000000000207e-03
4.264999999999999694e-03
4.223000000000000191e-03
4.212999999999999731e-03
4.235000000000000049e-03
4.244000000000000376e-03
4.239999999999999845e-03
4.224000000000000324e-03
4.207999999999999935e-03
4.222000000000000058e-03
4.232999999999999784e-03
4.231000000000000386e-03
4.218000000000000395e-03
4.205999999999999669e-03
4.230000000000000253e-03
4.244999999999999642e-03
4.238999999999999713e-03
4.225999999999999722e-03
4.212999999999999731e-03
4.230000000000000253e-03
4.239999999999999845e-03
4.186999999999999750e-03
4.099000000000000213e-03
4.126000000000000327e-03
4.277000000000000419e-03
4.453000000000000361e-03
4.664999999999999876e-03
4.923000000000000292e-03
5.212999999999999752e-03
5.563000000000000236e-03
5.742999999999999841e-03
5.438000000000000125e-03
4.942000000000000212e-03
4.513999999999999783e-03
4.276000000000000287e-03
4.231999999999999651e-03
4.270999999999999623e-03
4.295000000000000207e-03
4.284999999999999747e-03
4.295000000000000207e-03
4.304999999999999799e-03
4.287000000000000012e-03
4.263000000000000296e-03
4.246999999999999907e-03
4.257000000000000367e-03
4.275000000000000154e-03
4.264000000000000429e-03
4.245999999999999774e-03
4.255000000000000102e-03
4.257999999999999632e-03
4.265999999999999827e-03
4.257000000000000367e-03
4.240999999999999978e-03
4.232999999999999784e-03
4.256000000000000234e-03
4.284999999999999747e-03
4.271999999999999756e-03
4.259999999999999898e-03
4.252999999999999836e-03
4.250000000000000305e-03
4.257000000000000367e-03
4.251999999999999703e-03
4.240999999999999978e-03
4.250000000000000305e-03
4.256000000000000234e-03
4.277000000000000419e-03
4.264999999999999694e-03
4.237000000000000315e-03
4.231999999999999651e-03
4.265999999999999827e-03
4.292999999999999941e-03
4.276000000000000287e-03
4.269000000000000225e-03
4.275000000000000154e-03
4.277000000000000419e-03
4.281000000000000083e-03
4.270000000000000358e-03
4.264999999999999694e-03
4.283000000000000348e-03
4.294000000000000074e-03
4.296000000000000339e-03
4.285999999999999879e-03
4.272999999999999889e-03
4.277999999999999685e-03
4.302000000000000268e-03
4.334000000000000179e-03
4.322000000000000321e-03
4.315000000000000259e-03
4.303000000000000401e-03
4.311999999999999861e-03
4.328000000000000250e-03
4.336999999999999710e-03
4.329999999999999648e-03
4.342999999999999639e-03
4.353000000000000098e-03
4.354000000000000231e-03
4.350999999999999833e-03
4.355999999999999629e-03
4.351999999999999966e-03
4.356999999999999762e-03
4.369999999999999753e-03
4.367000000000000222e-03
4.363999999999999824e-03
4.388999999999999672e-03
4.419000000000000185e-03
4.415999999999999787e-03
4.402999999999999796e-03
4.387000000000000274e-03
4.381000000000000345e-03
4.385000000000000009e-03
4.398000000000000000e-03
4.366000000000000089e-03
4.335000000000000311e-03
4.325999999999999984e-03
4.328000000000000250e-03
4.330999999999999781e-03
4.296999999999999605e-03
4.261000000000000031e-03
4.242000000000000111e-03
4.250000000000000305e-03
4.276000000000000287e-03
4.251999999999999703e-03
4.231000000000000386e-03
4.225999999999999722e-03
4.224999999999999589e-03
4.236000000000000182e-03
4.231999999999999651e-03
4.205999999999999669e-03
4.211999999999999598e-03
4.223000000000000191e-03
4.230000000000000253e-03
4.227999999999999987e-03
4.218999999999999660e-03
4.214999999999999997e-03
4.250999999999999571e-03
4.255000000000000102e-03
4.229000000000000120e-03
4.204000000000000271e-03
4.205999999999999669e-03
4.217000000000000262e-03
4.210000000000000200e-03
4.193999999999999811e-03
4.181999999999999953e-03
4.196000000000000077e-03
4.231999999999999651e-03
4.248000000000000040e-03
4.217000000000000262e-03
4.197000000000000210e-03
4.194999999999999944e-03
4.229000000000000120e-03
4.246999999999999907e-03
4.225999999999999722e-03
4.205999999999999669e-03
4.198000000000000342e-03
4.214999999999999997e-03
4.223000000000000191e-03
4.211999999999999598e-03
4.192999999999999679e-03
4.192000000000000413e-03
4.206999999999999802e-03
4.214999999999999997e-03
4.209000000000000068e-03
4.184000000000000219e-03
4.185999999999999617e-03
4.209000000000000068e-03
4.216000000000000129e-03
4.211999999999999598e-03
4.203000000000000139e-03
4.192000000000000413e-03
4.192999999999999679e-03
4.197000000000000210e-03
4.185999999999999617e-03
4.165000000000000299e-03
4.183000000000000086e-03
4.218999999999999660e-03
4.230000000000000253e-03
4.211000000000000333e-03
4.185000000000000352e-03
4.187999999999999882e-03
4.202000000000000006e-03
4.200999999999999873e-03
4.203000000000000139e-03
4.194999999999999944e-03
4.181999999999999953e-03
4.190000000000000148e-03
4.202000000000000006e-03
4.200999999999999873e-03
4.185000000000000352e-03
4.192000000000000413e-03
4.214999999999999997e-03
4.217000000000000262e-03
4.199999999999999740e-03
4.192000000000000413e-03
4.197000000000000210e-03
4.211999999999999598e-03
4.231000000000000386e-03
4.219999999999999793e-03
4.197000000000000210e-03
4.196000000000000077e-03
4.214999999999999997e-03
4.219999999999999793e-03
4.205999999999999669e-03
4.203000000000000139e-03
4.189000000000000015e-03
4.205000000000000404e-03
4.232999999999999784e-03
4.214999999999999997e-03
4.185999999999999617e-03
4.193999999999999811e-03
4.223000000000000191e-03
4.238999999999999713e-03
4.216000000000000129e-03
4.183000000000000086e-03
4.179999999999999688e-03
4.206999999999999802e-03
4.230000000000000253e-03
4.242000000000000111e-03
4.237000000000000315e-03
4.258999999999999765e-03
4.284999999999999747e-03
4.296999999999999605e-03
4.300000000000000003e-03
4.277999999999999685e-03
4.277999999999999685e-03
4.283999999999999614e-03
4.283000000000000348e-03
4.264999999999999694e-03
4.218000000000000395e-03
4.212999999999999731e-03
4.223000000000000191e-03
4.244999999999999642e-03
4.232999999999999784e-03
4.218999999999999660e-03
4.211999999999999598e-03
4.216000000000000129e-03
4.230000000000000253e-03
4.218999999999999660e-03
4.187999999999999882e-03
4.178000000000000290e-03
4.211000000000000333e-03
4.227999999999999987e-03
4.209000000000000068e-03
4.181999999999999953e-03
4.190000000000000148e-03
4.217000000000000262e-03
4.232999999999999784e-03
4.218000000000000395e-03
4.192000000000000413e-03
4.209000000000000068e-03
4.239999999999999845e-03
4.244000000000000376e-03
4.192000000000000413e-03
4.109999999999999938e-03
4.081999999999999691e-03
4.197000000000000210e-03
4.347000000000000169e-03
4.508999999999999987e-03
4.746000000000000218e-03
5.067999999999999589e-03
5.406000000000000215e-03
5.739000000000000178e-03
5.712000000000000063e-03
5.258999999999999786e-03
4.800999999999999712e-03
4.447999999999999697e-03
4.258999999999999765e-03
4.246999999999999907e-03
4.287000000000000012e-03
4.316999999999999657e-03
4.327000000000000117e-03
4.322999999999999586e-03
4.295000000000000207e-03
4.270999999999999623e-03
4.261000000000000031e-03
4.276000000000000287e-03
4.290000000000000410e-03
4.266999999999999960e-03
4.257000000000000367e-03
4.279999999999999950e-03
4.285999999999999879e-03
4.288000000000000145e-03
4.282000000000000216e-03
4.265999999999999827e-03
4.276000000000000287e-03
4.303999999999999666e-03
4.308000000000000197e-03
4.288000000000000145e-03
4.270000000000000358e-03
4.278999999999999818e-03
4.296999999999999605e-03
4.308000000000000197e-03
4.308000000000000197e-03
4.288000000000000145e-03
4.298999999999999870e-03
4.322000000000000321e-03
4.328000000000000250e-03
4.312999999999999994e-03
4.322000000000000321e-03
4.329999999999999648e-03
4.333000000000000046e-03
4.348999999999999568e-03
4.334000000000000179e-03
4.318999999999999923e-03
4.334000000000000179e-03
4.355999999999999629e-03
4.367000000000000222e-03
4.347000000000000169e-03
4.342999999999999639e-03
4.355000000000000364e-03
4.373000000000000151e-03
4.394000000000000336e-03
4.388000000000000407e-03
4.366000000000000089e-03
4.373000000000000151e-03
4.405000000000000061e-03
4.427999999999999645e-03
4.401999999999999663e-03
4.395999999999999734e-03
4.418000000000000052e-03
4.438000000000000105e-03
4.444000000000000034e-03
4.429999999999999910e-03
4.423999999999999981e-03
4.438000000000000105e-03
4.470000000000000015e-03
4.481999999999999873e-03
4.475999999999999944e-03
4.462999999999999953e-03
4.478000000000000209e-03
4.500999999999999793e-03
4.510000000000000120e-03
4.493999999999999731e-03
4.481999999999999873e-03
4.498000000000000262e-03
4.530000000000000172e-03
4.537000000000000234e-03
4.512999999999999651e-03
4.503000000000000058e-03
4.499000000000000395e-03
4.506999999999999722e-03
4.521999999999999978e-03
4.500999999999999793e-03
4.471000000000000148e-03
4.457000000000000024e-03
4.459000000000000290e-03
4.447000000000000432e-03
4.416999999999999919e-03
4.381000000000000345e-03
4.374000000000000284e-03
4.382999999999999743e-03
4.382999999999999743e-03
4.368999999999999620e-03
4.355999999999999629e-03
4.357999999999999895e-03
4.366000000000000089e-03
4.360000000000000160e-03
4.347000000000000169e-03
4.331999999999999913e-03
4.342000000000000373e-03
4.366000000000000089e-03
4.380000000000000213e-03
4.355999999999999629e-03
4.346000000000000037e-03
4.357999999999999895e-03
4.383999999999999876e-03
4.395999999999999734e-03
4.370999999999999885e-03
4.347000000000000169e-03
4.359000000000000027e-03
4.366000000000000089e-03
4.364999999999999956e-03
4.357999999999999895e-03
4.353000000000000098e-03
4.360000000000000160e-03
4.368000000000000355e-03
4.374000000000000284e-03
4.363999999999999824e-03
4.355000000000000364e-03
4.367000000000000222e-03
4.380000000000000213e-03
4.381000000000000345e-03
4.359000000000000027e-03
4.349999999999999700e-03
4.360000000000000160e-03
4.374000000000000284e-03
4.383999999999999876e-03
4.369999999999999753e-03
4.348000000000000302e-03
4.357999999999999895e-03
4.385000000000000009e-03
4.383999999999999876e-03
4.367000000000000222e-03
4.349999999999999700e-03
4.362000000000000426e-03
4.376999999999999814e-03
4.381999999999999611e-03
4.361000000000000293e-03
4.347000000000000169e-03
4.366000000000000089e-03
4.396999999999999867e-03
4.405000000000000061e-03
4.376999999999999814e-03
4.354000000000000231e-03
4.361000000000000293e-03
4.375000000000000416e-03
4.387000000000000274e-03
4.375999999999999682e-03
4.360000000000000160e-03
4.375999999999999682e-03
4.399000000000000132e-03
4.390999999999999938e-03
4.368999999999999620e-03
4.356999999999999762e-03
4.369999999999999753e-03
4.382999999999999743e-03
4.390999999999999938e-03
4.375000000000000416e-03
4.367000000000000222e-03
4.368999999999999620e-03
4.385000000000000009e-03
4.390999999999999938e-03
4.381000000000000345e-03
4.361000000000000293e-03
4.360000000000000160e-03
4.394999999999999601e-03
4.420000000000000318e-03
4.405000000000000061e-03
4.380000000000000213e-03
4.383999999999999876e-03
4.401000000000000398e-03
4.412000000000000123e-03
4.388999999999999672e-03
4.373000000000000151e-03
4.380000000000000213e-03
4.405000000000000061e-03
4.406000000000000194e-03
4.379000000000000080e-03
4.374000000000000284e-03
4.389999999999999805e-03
4.410999999999999990e-03
4.408999999999999725e-03
4.398000000000000000e-03
4.396999999999999867e-03
4.401999999999999663e-03
4.415999999999999787e-03
4.414999999999999654e-03
4.387000000000000274e-03
4.377999999999999947e-03
4.405000000000000061e-03
4.432000000000000176e-03
4.422999999999999848e-03
4.392000000000000071e-03
4.386000000000000142e-03
4.394999999999999601e-03
4.408999999999999725e-03
4.420000000000000318e-03
4.408999999999999725e-03
4.394000000000000336e-03
4.395999999999999734e-03
4.407000000000000327e-03
4.412000000000000123e-03
4.408999999999999725e-03
4.420999999999999583e-03
4.452000000000000228e-03
4.492999999999999598e-03
4.491000000000000200e-03
4.462999999999999953e-03
4.458000000000000157e-03
4.473000000000000413e-03
4.480999999999999740e-03
4.473000000000000413e-03
4.439000000000000237e-03
4.408999999999999725e-03
4.410999999999999990e-03
4.423999999999999981e-03
4.420999999999999583e-03
4.414999999999999654e-03
4.407000000000000327e-03
4.407999999999999592e-03
4.433999999999999574e-03
4.427999999999999645e-03
4.401999999999999663e-03
4.388000000000000407e-03
4.394999999999999601e-03
4.414000000000000389e-03
4.421999999999999716e-03
4.394000000000000336e-03
4.380000000000000213e-03
4.403999999999999929e-03
4.425000000000000114e-03
4.427000000000000379e-03
4.406000000000000194e-03
4.394000000000000336e-03
4.412000000000000123e-03
4.432000000000000176e-03
4.423999999999999981e-03
4.394999999999999601e-03
4.329000000000000382e-03
4.284999999999999747e-03
4.348000000000000302e-03
4.460000000000000422e-03
4.571999999999999675e-03
4.769999999999999934e-03
5.055999999999999731e-03
5.377999999999999968e-03
5.717999999999999992e-03
5.867999999999999952e-03
5.474999999999999832e-03
5.041000000000000342e-03
4.682999999999999663e-03
4.460000000000000422e-03
4.449999999999999963e-03
4.492999999999999598e-03
4.524000000000000243e-03
4.552999999999999756e-03
4.533999999999999836e-03
4.501999999999999925e-03
4.486999999999999669e-03
4.493999999999999731e-03
4.501999999999999925e-03
4.492000000000000333e-03
4.467999999999999750e-03
4.475999999999999944e-03
4.492999999999999598e-03
4.500999999999999793e-03
4.483000000000000006e-03
4.467999999999999750e-03
4.467999999999999750e-03
4.477000000000000077e-03
4.506999999999999722e-03
4.519999999999999712e-03
4.495999999999999996e-03
4.478000000000000209e-03
4.488999999999999935e-03
4.511000000000000253e-03
4.518999999999999580e-03
4.490000000000000067e-03
4.474999999999999811e-03
4.501999999999999925e-03
4.536000000000000101e-03
4.536000000000000101e-03
4.512000000000000385e-03
4.499000000000000395e-03
4.517000000000000182e-03
4.545000000000000429e-03
4.544000000000000296e-03
4.518999999999999580e-03
4.517000000000000182e-03
4.530000000000000172e-03
4.555000000000000021e-03
4.559999999999999817e-03
4.551000000000000358e-03
4.543000000000000163e-03
4.557000000000000287e-03
4.581000000000000003e-03
4.582000000000000135e-03
4.563000000000000216e-03
4.557000000000000287e-03
4.577999999999999604e-03
4.603999999999999586e-03
4.622000000000000240e-03
4.610999999999999648e-03
4.602000000000000188e-03
4.616999999999999577e-03
4.635000000000000231e-03
4.642000000000000293e-03
4.621000000000000107e-03
4.628000000000000169e-03
4.653000000000000018e-03
4.674000000000000203e-03
4.677999999999999867e-03
4.667000000000000141e-03
4.663999999999999743e-03
4.676999999999999734e-03
4.697999999999999919e-03
4.704999999999999981e-03
4.688999999999999592e-03
4.686000000000000061e-03
4.706000000000000114e-03
4.733000000000000228e-03
4.732000000000000095e-03
4.714999999999999573e-03
4.700000000000000185e-03
4.708999999999999644e-03
4.715999999999999706e-03
4.701999999999999583e-03
4.661000000000000212e-03
4.640000000000000027e-03
4.642000000000000293e-03
4.631999999999999833e-03
4.597999999999999657e-03
4.553999999999999888e-03
4.533999999999999836e-03
4.529000000000000040e-03
4.540999999999999898e-03
4.530000000000000172e-03
4.503000000000000058e-03
4.479000000000000342e-03
4.480999999999999740e-03
4.497000000000000129e-03
4.486000000000000404e-03
4.471000000000000148e-03
4.465000000000000219e-03
4.478000000000000209e-03
4.495999999999999996e-03
4.484000000000000138e-03
4.467999999999999750e-03
4.461999999999999821e-03
4.485000000000000271e-03
4.499000000000000395e-03
4.505000000000000324e-03
4.486999999999999669e-03
4.479999999999999608e-03
4.487999999999999802e-03
4.495999999999999996e-03
4.500999999999999793e-03
4.484000000000000138e-03
4.471000000000000148e-03
4.474999999999999811e-03
4.488999999999999935e-03
4.484000000000000138e-03
4.458000000000000157e-03
4.451000000000000095e-03
4.455999999999999892e-03
4.486999999999999669e-03
4.494999999999999864e-03
4.465000000000000219e-03
4.447999999999999697e-03
4.458000000000000157e-03
4.474999999999999811e-03
4.465000000000000219e-03
4.444000000000000034e-03
4.457000000000000024e-03
4.473999999999999679e-03
4.488999999999999935e-03
4.488999999999999935e-03
4.464000000000000086e-03
4.440999999999999635e-03
4.447000000000000432e-03
4.474999999999999811e-03
4.477000000000000077e-03
4.447999999999999697e-03
4.447000000000000432e-03
4.460999999999999688e-03
4.473999999999999679e-03
4.474999999999999811e-03
4.446000000000000299e-03
4.429999999999999910e-03
4.447999999999999697e-03
4.466000000000000351e-03
4.455999999999999892e-03
4.432000000000000176e-03
4.422999999999999848e-03
4.435999999999999839e-03
4.452000000000000228e-03
4.442999999999999901e-03
4.433000000000000308e-03
4.427000000000000379e-03
4.433000000000000308e-03
4.449999999999999963e-03
4.447999999999999697e-03
4.435999999999999839e-03
4.433999999999999574e-03
4.448999999999999830e-03
4.460999999999999688e-03
4.453000000000000361e-03
4.433000000000000308e-03
4.419000000000000185e-03
4.429999999999999910e-03
4.452000000000000228e-03
4.440000000000000370e-03
4.423999999999999981e-03
4.415999999999999787e-03
4.423999999999999981e-03
4.447000000000000432e-03
4.440999999999999635e-03
4.418000000000000052e-03
4.407000000000000327e-03
4.420000000000000318e-03
4.447000000000000432e-03
4.435999999999999839e-03
4.406000000000000194e-03
4.402999999999999796e-03
4.421999999999999716e-03
4.436999999999999972e-03
4.425000000000000114e-03
4.403999999999999929e-03
4.398000000000000000e-03
4.410999999999999990e-03
4.428999999999999777e-03
4.415999999999999787e-03
4.401999999999999663e-03
4.396999999999999867e-03
4.408999999999999725e-03
4.422999999999999848e-03
4.423999999999999981e-03
4.395999999999999734e-03
4.388999999999999672e-03
4.408999999999999725e-03
4.419000000000000185e-03
4.421999999999999716e-03
4.406000000000000194e-03
4.395999999999999734e-03
4.405000000000000061e-03
4.421999999999999716e-03
4.420000000000000318e-03
4.390999999999999938e-03
4.372000000000000018e-03
4.392000000000000071e-03
4.419000000000000185e-03
4.405000000000000061e-03
4.377999999999999947e-03
4.377999999999999947e-03
4.399000000000000132e-03
4.415999999999999787e-03
4.402999999999999796e-03
4.383999999999999876e-03
4.372000000000000018e-03
4.376999999999999814e-03
4.393000000000000203e-03
4.388999999999999672e-03
4.374000000000000284e-03
4.359000000000000027e-03
4.380000000000000213e-03
4.400000000000000265e-03
4.401999999999999663e-03
4.377999999999999947e-03
4.368000000000000355e-03
4.379000000000000080e-03
4.377999999999999947e-03
4.392000000000000071e-03
4.399000000000000132e-03
4.415999999999999787e-03
4.432000000000000176e-03
4.444000000000000034e-03
4.451000000000000095e-03
4.438000000000000105e-03
4.427000000000000379e-03
4.432000000000000176e-03
4.436999999999999972e-03
4.405000000000000061e-03
4.360000000000000160e-03
4.346000000000000037e-03
4.362000000000000426e-03
4.394999999999999601e-03
4.395999999999999734e-03
4.367000000000000222e-03
4.344999999999999904e-03
4.363999999999999824e-03
4.380000000000000213e-03
4.368999999999999620e-03
4.336999999999999710e-03
4.329000000000000382e-03
4.359000000000000027e-03
4.386000000000000142e-03
4.375999999999999682e-03
4.350999999999999833e-03
4.347000000000000169e-03
4.359000000000000027e-03
4.375999999999999682e-03
4.370999999999999885e-03
4.355999999999999629e-03
4.335999999999999577e-03
4.343999999999999771e-03
4.357999999999999895e-03
4.328000000000000250e-03
4.231999999999999651e-03
4.198999999999999608e-03
4.310999999999999728e-03
4.418000000000000052e-03
4.525000000000000376e-03
4.725000000000000033e-03
5.030999999999999882e-03
5.382999999999999764e-03
5.726000000000000187e-03
5.664999999999999897e-03
5.186999999999999771e-03
4.800999999999999712e-03
4.466000000000000351e-03
4.350999999999999833e-03
4.403999999999999929e-03
4.429999999999999910e-03
4.433000000000000308e-03
4.422999999999999848e-03
4.420999999999999583e-03
4.407999999999999592e-03
4.388000000000000407e-03
4.374000000000000284e-03
4.387000000000000274e-03
4.394000000000000336e-03
4.377999999999999947e-03
4.379000000000000080e-03
4.377999999999999947e-03
4.390999999999999938e-03
4.394000000000000336e-03
4.401000000000000398e-03
4.375999999999999682e-03
4.374000000000000284e-03
4.389999999999999805e-03
4.401999999999999663e-03
4.401000000000000398e-03
4.383999999999999876e-03
4.374000000000000284e-03
4.383999999999999876e-03
4.408999999999999725e-03
4.402999999999999796e-03
4.377999999999999947e-03
4.385000000000000009e-03
4.407999999999999592e-03
4.415999999999999787e-03
4.407000000000000327e-03
4.401000000000000398e-03
4.402999999999999796e-03
4.428999999999999777e-03
4.441999999999999768e-03
4.433999999999999574e-03
4.419000000000000185e-03
4.414999999999999654e-03
4.433999999999999574e-03
4.440999999999999635e-03
4.438000000000000105e-03
4.429999999999999910e-03
4.435999999999999839e-03
4.461999999999999821e-03
4.478000000000000209e-03
4.480999999999999740e-03
4.465000000000000219e-03
4.467999999999999750e-03
4.479999999999999608e-03
4.485000000000000271e-03
4.490000000000000067e-03
4.493999999999999731e-03
4.498000000000000262e-03
4.512999999999999651e-03
4.517000000000000182e-03
4.508999999999999987e-03
4.507999999999999854e-03
4.512000000000000385e-03
4.532999999999999703e-03
4.551999999999999623e-03
4.558999999999999685e-03
4.545999999999999694e-03
4.538000000000000367e-03
4.553999999999999888e-03
4.581000000000000003e-03
4.577999999999999604e-03
4.571999999999999675e-03
4.581000000000000003e-03
4.604999999999999719e-03
4.616000000000000311e-03
4.598999999999999790e-03
4.565999999999999746e-03
4.557000000000000287e-03
4.571999999999999675e-03
4.577000000000000339e-03
4.553999999999999888e-03
4.525000000000000376e-03
4.510000000000000120e-03
4.505999999999999589e-03
4.503000000000000058e-03
4.475999999999999944e-03
4.446000000000000299e-03
4.427999999999999645e-03
4.432000000000000176e-03
4.442999999999999901e-03
4.423999999999999981e-03
4.388000000000000407e-03
4.381000000000000345e-03
4.401999999999999663e-03
4.409999999999999858e-03
4.394999999999999601e-03
4.363999999999999824e-03
4.368999999999999620e-03
4.387000000000000274e-03
4.399000000000000132e-03
4.390999999999999938e-03
4.376999999999999814e-03
4.362999999999999691e-03
4.368999999999999620e-03
4.385000000000000009e-03
4.385000000000000009e-03
4.379000000000000080e-03
4.375000000000000416e-03
4.393000000000000203e-03
4.401999999999999663e-03
4.389999999999999805e-03
4.375000000000000416e-03
4.385000000000000009e-03
4.400000000000000265e-03
4.410999999999999990e-03
4.394000000000000336e-03
4.359000000000000027e-03
4.357999999999999895e-03
4.381000000000000345e-03
4.394999999999999601e-03
4.388000000000000407e-03
4.368999999999999620e-03
4.364999999999999956e-03
4.368999999999999620e-03
4.370999999999999885e-03
4.362000000000000426e-03
4.342000000000000373e-03
4.347000000000000169e-03
4.364999999999999956e-03
4.380000000000000213e-03
4.361000000000000293e-03
4.335000000000000311e-03
4.343999999999999771e-03
4.369999999999999753e-03
4.381000000000000345e-03
4.375000000000000416e-03
4.347000000000000169e-03
4.347000000000000169e-03
4.353000000000000098e-03
4.363999999999999824e-03
4.347000000000000169e-03
4.333000000000000046e-03
4.343999999999999771e-03
4.350999999999999833e-03
4.364999999999999956e-03
4.349999999999999700e-03
4.325999999999999984e-03
4.328000000000000250e-03
4.343999999999999771e-03
4.346000000000000037e-03
4.325999999999999984e-03
4.318999999999999923e-03
4.324999999999999852e-03
4.340000000000000108e-03
4.356999999999999762e-03
4.341000000000000240e-03
4.314000000000000126e-03
4.315000000000000259e-03
4.328000000000000250e-03
4.336999999999999710e-03
4.334000000000000179e-03
4.317999999999999790e-03
4.325999999999999984e-03
4.344999999999999904e-03
4.350999999999999833e-03
4.329999999999999648e-03
4.310999999999999728e-03
4.312999999999999994e-03
4.334000000000000179e-03
4.342999999999999639e-03
4.329999999999999648e-03
4.307000000000000065e-03
4.298999999999999870e-03
4.329000000000000382e-03
4.350999999999999833e-03
4.336999999999999710e-03
4.303999999999999666e-03
4.309000000000000330e-03
4.329000000000000382e-03
4.344999999999999904e-03
4.342999999999999639e-03
4.309999999999999595e-03
4.311999999999999861e-03
4.321000000000000188e-03
4.322999999999999586e-03
4.301000000000000136e-03
4.297999999999999737e-03
4.303999999999999666e-03
4.315000000000000259e-03
4.324999999999999852e-03
4.309000000000000330e-03
4.294000000000000074e-03
4.290000000000000410e-03
4.308000000000000197e-03
4.323999999999999719e-03
4.308000000000000197e-03
4.289000000000000278e-03
4.290999999999999676e-03
4.308000000000000197e-03
4.316999999999999657e-03
4.302000000000000268e-03
4.283000000000000348e-03
4.277999999999999685e-03
4.296999999999999605e-03
4.305999999999999932e-03
4.295000000000000207e-03
4.279999999999999950e-03
4.277999999999999685e-03
4.303000000000000401e-03
4.303999999999999666e-03
4.283000000000000348e-03
4.282000000000000216e-03
4.281000000000000083e-03
4.294000000000000074e-03
4.310999999999999728e-03
4.294000000000000074e-03
4.270000000000000358e-03
4.283000000000000348e-03
4.311999999999999861e-03
4.305999999999999932e-03
4.283000000000000348e-03
4.269000000000000225e-03
4.276000000000000287e-03
4.294000000000000074e-03
4.304999999999999799e-03
4.282000000000000216e-03
4.255000000000000102e-03
4.242000000000000111e-03
4.268000000000000092e-03
4.297999999999999737e-03
4.317999999999999790e-03
4.325999999999999984e-03
4.324999999999999852e-03
4.346000000000000037e-03
4.370999999999999885e-03
4.348000000000000302e-03
4.314000000000000126e-03
4.290000000000000410e-03
4.296999999999999605e-03
4.302000000000000268e-03
4.277999999999999685e-03
4.249000000000000173e-03
4.243000000000000244e-03
4.277999999999999685e-03
4.308000000000000197e-03
4.289000000000000278e-03
4.259999999999999898e-03
4.244000000000000376e-03
4.256000000000000234e-03
4.270999999999999623e-03
4.250999999999999571e-03
4.236000000000000182e-03
4.244999999999999642e-03
4.249000000000000173e-03
4.257999999999999632e-03
4.250000000000000305e-03
4.236000000000000182e-03
4.239999999999999845e-03
4.264000000000000429e-03
4.264000000000000429e-03
4.237000000000000315e-03
4.225999999999999722e-03
4.237000000000000315e-03
4.250000000000000305e-03
4.244999999999999642e-03
4.160999999999999768e-03
4.112000000000000204e-03
4.216000000000000129e-03
4.338999999999999975e-03
4.494999999999999864e-03
4.721000000000000370e-03
5.002999999999999635e-03
5.356999999999999783e-03
5.736999999999999912e-03
5.682000000000000418e-03
5.237000000000000335e-03
4.795999999999999916e-03
4.422999999999999848e-03
4.257999999999999632e-03
4.281000000000000083e-03
4.310999999999999728e-03
4.317999999999999790e-03
4.320000000000000055e-03
4.318999999999999923e-03
4.322000000000000321e-03
4.301000000000000136e-03
4.264999999999999694e-03
4.271999999999999756e-03
4.289000000000000278e-03
4.298999999999999870e-03
4.283999999999999614e-03
4.259999999999999898e-03
4.270999999999999623e-03
4.285999999999999879e-03
4.298999999999999870e-03
4.284999999999999747e-03
4.270000000000000358e-03
4.270999999999999623e-03
4.283000000000000348e-03
4.294000000000000074e-03
4.288000000000000145e-03
4.281000000000000083e-03
4.285999999999999879e-03
4.296999999999999605e-03
4.300000000000000003e-03
4.282000000000000216e-03
4.264000000000000429e-03
4.275000000000000154e-03
4.289000000000000278e-03
4.297999999999999737e-03
4.288000000000000145e-03
4.276000000000000287e-03
4.281000000000000083e-03
4.303999999999999666e-03
4.322999999999999586e-03
4.312999999999999994e-03
4.292999999999999941e-03
4.296999999999999605e-03
4.321000000000000188e-03
4.337999999999999842e-03
4.328000000000000250e-03
4.315000000000000259e-03
4.316000000000000392e-03
4.333000000000000046e-03
4.336999999999999710e-03
4.325999999999999984e-03
4.322999999999999586e-03
4.348000000000000302e-03
4.372000000000000018e-03
4.366000000000000089e-03
4.347000000000000169e-03
4.337999999999999842e-03
4.359000000000000027e-03
4.377999999999999947e-03
4.396999999999999867e-03
4.395999999999999734e-03
4.372000000000000018e-03
4.375000000000000416e-03
4.394999999999999601e-03
4.415999999999999787e-03
4.399000000000000132e-03
4.394000000000000336e-03
4.408999999999999725e-03
4.438000000000000105e-03
4.455999999999999892e-03
4.440999999999999635e-03
4.428999999999999777e-03
4.422999999999999848e-03
4.446000000000000299e-03
4.453999999999999626e-03
4.426000000000000247e-03
4.408999999999999725e-03
4.427999999999999645e-03
4.435999999999999839e-03
4.415999999999999787e-03
4.388000000000000407e-03
4.343999999999999771e-03
4.327000000000000117e-03
4.331999999999999913e-03
4.329999999999999648e-03
4.296999999999999605e-03
4.269000000000000225e-03
4.257999999999999632e-03
4.266999999999999960e-03
4.277000000000000419e-03
4.261000000000000031e-03
4.229000000000000120e-03
4.226999999999999855e-03
4.235000000000000049e-03
4.246999999999999907e-03
4.230000000000000253e-03
4.194999999999999944e-03
4.198000000000000342e-03
4.223000000000000191e-03
4.227999999999999987e-03
4.205999999999999669e-03
4.185999999999999617e-03
4.185000000000000352e-03
4.206999999999999802e-03
4.220999999999999926e-03
4.199999999999999740e-03
4.189000000000000015e-03
4.199999999999999740e-03
4.224999999999999589e-03
4.232999999999999784e-03
4.206999999999999802e-03
4.189000000000000015e-03
4.192999999999999679e-03
4.213999999999999864e-03
4.224000000000000324e-03
4.207999999999999935e-03
4.185999999999999617e-03
4.186999999999999750e-03
4.205000000000000404e-03
4.224000000000000324e-03
4.205000000000000404e-03
4.172000000000000361e-03
4.173999999999999759e-03
4.192000000000000413e-03
4.203000000000000139e-03
4.200999999999999873e-03
4.176000000000000024e-03
4.185999999999999617e-03
4.213999999999999864e-03
4.212999999999999731e-03
4.185000000000000352e-03
4.173999999999999759e-03
4.178000000000000290e-03
4.178000000000000290e-03
4.193999999999999811e-03
4.185000000000000352e-03
4.167999999999999830e-03
4.176000000000000024e-03
4.192000000000000413e-03
4.190000000000000148e-03
4.173999999999999759e-03
4.179000000000000423e-03
4.172999999999999626e-03
4.172999999999999626e-03
4.172000000000000361e-03
4.167999999999999830e-03
4.152000000000000308e-03
4.151000000000000176e-03
4.176000000000000024e-03
4.197000000000000210e-03
4.192000000000000413e-03
4.170000000000000095e-03
4.159999999999999636e-03
4.172000000000000361e-03
4.187999999999999882e-03
4.159000000000000370e-03
4.140999999999999716e-03
4.152999999999999574e-03
4.171000000000000228e-03
4.179999999999999688e-03
4.164000000000000166e-03
4.146000000000000379e-03
4.165000000000000299e-03
4.197000000000000210e-03
4.189000000000000015e-03
4.155999999999999972e-03
4.150000000000000043e-03
4.158000000000000237e-03
4.166000000000000432e-03
4.171000000000000228e-03
4.153999999999999707e-03
4.139999999999999583e-03
4.155999999999999972e-03
4.172999999999999626e-03
4.191000000000000281e-03
4.165000000000000299e-03
4.134999999999999787e-03
4.128999999999999858e-03
4.158000000000000237e-03
4.166000000000000432e-03
4.152999999999999574e-03
4.133000000000000389e-03
4.147999999999999778e-03
4.167999999999999830e-03
4.178000000000000290e-03
4.166000000000000432e-03
4.145000000000000247e-03
4.158000000000000237e-03
4.180999999999999821e-03
4.189000000000000015e-03
4.152999999999999574e-03
4.118000000000000133e-03
4.119000000000000265e-03
4.152000000000000308e-03
4.165000000000000299e-03
4.158000000000000237e-03
4.140999999999999716e-03
4.144000000000000114e-03
4.161999999999999901e-03
4.172999999999999626e-03
4.158000000000000237e-03
4.134999999999999787e-03
4.158000000000000237e-03
4.177000000000000157e-03
4.172000000000000361e-03
4.141999999999999849e-03
4.117000000000000000e-03
4.127999999999999725e-03
4.159999999999999636e-03
4.172999999999999626e-03
4.148999999999999910e-03
4.144000000000000114e-03
4.158000000000000237e-03
4.191000000000000281e-03
4.186999999999999750e-03
4.172000000000000361e-03
4.178000000000000290e-03
4.225999999999999722e-03
4.250000000000000305e-03
4.224999999999999589e-03
4.180999999999999821e-03
4.148999999999999910e-03
4.158000000000000237e-03
4.168999999999999963e-03
4.155999999999999972e-03
4.139000000000000318e-03
4.127999999999999725e-03
4.144000000000000114e-03
4.163000000000000034e-03
4.166000000000000432e-03
4.137000000000000052e-03
4.114999999999999734e-03
4.113000000000000336e-03
4.126999999999999592e-03
4.131000000000000123e-03
4.121999999999999796e-03
4.102999999999999876e-03
4.100999999999999611e-03
4.134999999999999787e-03
4.138000000000000185e-03
4.117000000000000000e-03
4.113999999999999602e-03
4.120999999999999663e-03
4.141999999999999849e-03
4.124000000000000062e-03
4.107999999999999673e-03
4.099000000000000213e-03
4.087999999999999620e-03
4.028999999999999596e-03
4.022000000000000401e-03
4.117000000000000000e-03
4.242000000000000111e-03
4.439000000000000237e-03
4.713000000000000175e-03
5.003999999999999768e-03
5.296000000000000360e-03
5.616999999999999597e-03
5.531000000000000326e-03
5.085000000000000110e-03
4.615000000000000178e-03
4.284999999999999747e-03
4.117000000000000000e-03
4.135999999999999920e-03
4.205999999999999669e-03
4.217000000000000262e-03
4.181999999999999953e-03
4.176000000000000024e-03
4.186999999999999750e-03
4.194999999999999944e-03
4.185000000000000352e-03
4.161999999999999901e-03
4.153999999999999707e-03
4.151000000000000176e-03
4.163000000000000034e-03
4.165000000000000299e-03
4.152999999999999574e-03
4.177000000000000157e-03
4.165000000000000299e-03
4.172000000000000361e-03
4.176000000000000024e-03
4.139999999999999583e-03
4.133999999999999654e-03
4.168999999999999963e-03
4.184000000000000219e-03
4.153999999999999707e-03
4.146999999999999645e-03
4.157000000000000105e-03
4.151000000000000176e-03
4.159999999999999636e-03
4.172999999999999626e-03
4.153999999999999707e-03
4.152000000000000308e-03
4.166000000000000432e-03
4.191000000000000281e-03
4.200999999999999873e-03
4.196000000000000077e-03
4.167999999999999830e-03
4.177000000000000157e-03
4.203000000000000139e-03
4.196000000000000077e-03
4.174999999999999892e-03
4.177000000000000157e-03
4.198999999999999608e-03
4.217000000000000262e-03
4.211999999999999598e-03
4.198999999999999608e-03
4.189000000000000015e-03
4.198000000000000342e-03
4.231999999999999651e-03
4.240999999999999978e-03
4.218999999999999660e-03
4.217000000000000262e-03
4.225999999999999722e-03
4.237000000000000315e-03
4.257999999999999632e-03
4.246999999999999907e-03
4.238999999999999713e-03
4.242000000000000111e-03
4.272999999999999889e-03
4.287000000000000012e-03
4.277000000000000419e-03
4.263000000000000296e-03
4.266999999999999960e-03
4.309000000000000330e-03
4.309999999999999595e-03
4.277000000000000419e-03
4.269000000000000225e-03
4.288000000000000145e-03
4.320000000000000055e-03
4.340000000000000108e-03
4.325999999999999984e-03
4.314000000000000126e-03
4.328000000000000250e-03
4.349999999999999700e-03
4.342999999999999639e-03
4.301000000000000136e-03
4.290999999999999676e-03
4.296000000000000339e-03
4.309000000000000330e-03
4.295000000000000207e-03
4.251999999999999703e-03
4.224999999999999589e-03
4.219999999999999793e-03
4.238999999999999713e-03
4.224999999999999589e-03
4.181999999999999953e-03
4.159999999999999636e-03
4.187999999999999882e-03
4.190000000000000148e-03
4.179000000000000423e-03
4.152999999999999574e-03
4.146000000000000379e-03
4.155999999999999972e-03
4.179999999999999688e-03
4.174999999999999892e-03
4.152999999999999574e-03
4.153999999999999707e-03
4.163000000000000034e-03
4.178000000000000290e-03
4.172000000000000361e-03
4.154999999999999839e-03
4.146000000000000379e-03
4.151000000000000176e-03
4.181999999999999953e-03
4.172999999999999626e-03
4.139999999999999583e-03
4.129999999999999991e-03
4.150000000000000043e-03
4.167999999999999830e-03
4.158000000000000237e-03
4.144000000000000114e-03
4.151000000000000176e-03
4.164000000000000166e-03
4.181999999999999953e-03
4.177000000000000157e-03
4.141999999999999849e-03
4.138000000000000185e-03
4.147999999999999778e-03
4.153999999999999707e-03
4.147999999999999778e-03
4.137000000000000052e-03
4.137000000000000052e-03
4.160999999999999768e-03
4.183000000000000086e-03
4.176000000000000024e-03
4.161999999999999901e-03
4.146000000000000379e-03
4.163000000000000034e-03
4.181999999999999953e-03
4.178000000000000290e-03
4.133999999999999654e-03
4.133000000000000389e-03
4.158000000000000237e-03
4.165000000000000299e-03
4.150000000000000043e-03
4.131000000000000123e-03
4.141999999999999849e-03
4.161999999999999901e-03
4.171000000000000228e-03
4.170000000000000095e-03
4.157000000000000105e-03
4.142999999999999981e-03
4.153999999999999707e-03
4.165000000000000299e-03
4.163000000000000034e-03
4.147999999999999778e-03
4.133000000000000389e-03
4.140999999999999716e-03
4.167999999999999830e-03
4.166000000000000432e-03
4.138000000000000185e-03
4.132000000000000256e-03
4.146999999999999645e-03
4.168999999999999963e-03
4.172999999999999626e-03
4.163000000000000034e-03
4.147999999999999778e-03
4.150000000000000043e-03
4.151000000000000176e-03
4.159000000000000370e-03
4.137000000000000052e-03
4.133999999999999654e-03
4.148999999999999910e-03
4.173999999999999759e-03
4.166000000000000432e-03
4.153999999999999707e-03
4.145000000000000247e-03
4.144000000000000114e-03
4.158000000000000237e-03
4.163000000000000034e-03
4.153999999999999707e-03
4.146000000000000379e-03
4.160999999999999768e-03
4.185000000000000352e-03
4.179000000000000423e-03
4.147999999999999778e-03
4.126999999999999592e-03
4.151000000000000176e-03
4.174999999999999892e-03
4.166000000000000432e-03
4.145000000000000247e-03
4.139999999999999583e-03
4.159000000000000370e-03
4.178000000000000290e-03
4.166999999999999697e-03
4.145000000000000247e-03
4.145000000000000247e-03
4.146000000000000379e-03
4.166000000000000432e-03
4.172999999999999626e-03
4.144000000000000114e-03
4.138000000000000185e-03
4.148999999999999910e-03
4.152999999999999574e-03
4.144000000000000114e-03
4.134999999999999787e-03
4.117000000000000000e-03
4.133999999999999654e-03
4.170000000000000095e-03
4.190000000000000148e-03
4.192000000000000413e-03
4.193999999999999811e-03
4.209000000000000068e-03
4.235000000000000049e-03
4.238999999999999713e-03
4.203000000000000139e-03
4.154999999999999839e-03
4.157000000000000105e-03
4.184000000000000219e-03
4.165000000000000299e-03
4.126000000000000327e-03
4.121999999999999796e-03
4.153999999999999707e-03
4.171000000000000228e-03
4.164000000000000166e-03
4.132000000000000256e-03
4.101999999999999744e-03
4.118000000000000133e-03
4.142999999999999981e-03
4.138000000000000185e-03
4.118000000000000133e-03
4.115999999999999867e-03
4.129999999999999991e-03
4.146999999999999645e-03
4.140999999999999716e-03
4.117000000000000000e-03
4.109999999999999938e-03
4.125000000000000194e-03
4.138000000000000185e-03
4.146999999999999645e-03
4.131000000000000123e-03
4.126999999999999592e-03
4.124000000000000062e-03
4.081000000000000426e-03
4.014000000000000207e-03
4.070999999999999966e-03
4.209000000000000068e-03
4.386000000000000142e-03
4.640000000000000027e-03
4.950999999999999672e-03
5.230000000000000274e-03
5.564000000000000369e-03
5.663999999999999764e-03
5.270000000000000379e-03
4.793999999999999651e-03
4.390999999999999938e-03
4.171000000000000228e-03
4.166999999999999697e-03
4.210000000000000200e-03
4.235000000000000049e-03
4.209000000000000068e-03
4.200999999999999873e-03
4.205999999999999669e-03
4.206999999999999802e-03
4.199999999999999740e-03
4.187999999999999882e-03
4.185999999999999617e-03
4.193999999999999811e-03
4.211999999999999598e-03
4.200999999999999873e-03
4.179000000000000423e-03
4.179999999999999688e-03
4.192000000000000413e-03
4.204000000000000271e-03
4.207999999999999935e-03
4.189000000000000015e-03
4.190000000000000148e-03
4.206999999999999802e-03
4.224000000000000324e-03
4.210000000000000200e-03
4.184000000000000219e-03
4.189000000000000015e-03
4.223000000000000191e-03
4.226999999999999855e-03
4.217000000000000262e-03
4.203000000000000139e-03
4.204000000000000271e-03
4.210000000000000200e-03
4.232999999999999784e-03
4.242000000000000111e-03
4.219999999999999793e-03
4.209000000000000068e-03
4.223000000000000191e-03
4.251999999999999703e-03
4.252999999999999836e-03
4.233999999999999916e-03
4.235000000000000049e-03
4.253999999999999969e-03
4.274000000000000021e-03
4.275000000000000154e-03
4.258999999999999765e-03
4.265999999999999827e-03
4.295000000000000207e-03
4.308000000000000197e-03
4.305999999999999932e-03
4.285999999999999879e-03
4.278999999999999818e-03
4.296000000000000339e-03
4.322000000000000321e-03
4.322000000000000321e-03
4.308000000000000197e-03
4.305999999999999932e-03
4.322999999999999586e-03
4.348000000000000302e-03
4.356999999999999762e-03
4.336999999999999710e-03
4.340000000000000108e-03
4.366000000000000089e-03
4.388000000000000407e-03
4.375000000000000416e-03
4.377999999999999947e-03
4.390999999999999938e-03
4.399000000000000132e-03
4.419000000000000185e-03
4.427000000000000379e-03
4.420000000000000318e-03
4.420000000000000318e-03
4.433000000000000308e-03
4.441999999999999768e-03
4.420999999999999583e-03
4.401999999999999663e-03
4.398000000000000000e-03
4.405000000000000061e-03
4.388999999999999672e-03
4.366000000000000089e-03
4.331999999999999913e-03
4.309999999999999595e-03
4.301000000000000136e-03
4.296000000000000339e-03
4.279999999999999950e-03
4.250999999999999571e-03
4.239999999999999845e-03
4.259999999999999898e-03
4.279999999999999950e-03
4.259999999999999898e-03
4.231999999999999651e-03
4.223000000000000191e-03
4.224000000000000324e-03
4.237000000000000315e-03
4.235000000000000049e-03
4.207999999999999935e-03
4.205000000000000404e-03
4.229000000000000120e-03
4.246999999999999907e-03
4.239999999999999845e-03
4.220999999999999926e-03
4.231999999999999651e-03
4.249000000000000173e-03
4.259999999999999898e-03
4.248000000000000040e-03
4.220999999999999926e-03
4.216000000000000129e-03
4.230000000000000253e-03
4.253999999999999969e-03
4.244000000000000376e-03
4.226999999999999855e-03
4.218999999999999660e-03
4.224000000000000324e-03
4.238999999999999713e-03
4.231000000000000386e-03
4.220999999999999926e-03
4.220999999999999926e-03
4.231000000000000386e-03
4.246999999999999907e-03
4.238999999999999713e-03
4.229000000000000120e-03
4.235000000000000049e-03
4.248000000000000040e-03
4.262000000000000163e-03
4.250000000000000305e-03
4.225999999999999722e-03
4.222000000000000058e-03
4.239999999999999845e-03
4.249000000000000173e-03
4.245999999999999774e-03
4.220999999999999926e-03
4.214999999999999997e-03
4.223000000000000191e-03
4.232999999999999784e-03
4.233999999999999916e-03
4.219999999999999793e-03
4.220999999999999926e-03
4.240999999999999978e-03
4.256000000000000234e-03
4.232999999999999784e-03
4.220999999999999926e-03
4.224999999999999589e-03
4.229000000000000120e-03
4.239999999999999845e-03
4.224999999999999589e-03
4.213999999999999864e-03
4.225999999999999722e-03
4.238999999999999713e-03
4.255000000000000102e-03
4.239999999999999845e-03
4.219999999999999793e-03
4.202000000000000006e-03
4.230000000000000253e-03
4.244000000000000376e-03
4.227999999999999987e-03
4.213999999999999864e-03
4.224000000000000324e-03
4.251999999999999703e-03
4.259999999999999898e-03
4.232999999999999784e-03
4.212999999999999731e-03
4.212999999999999731e-03
4.231999999999999651e-03
4.248000000000000040e-03
4.246999999999999907e-03
4.217000000000000262e-03
4.204000000000000271e-03
4.213999999999999864e-03
4.239999999999999845e-03
4.230000000000000253e-03
4.205000000000000404e-03
4.213999999999999864e-03
4.237000000000000315e-03
4.253999999999999969e-03
4.243000000000000244e-03
4.219999999999999793e-03
4.218000000000000395e-03
4.236000000000000182e-03
4.245999999999999774e-03
4.237000000000000315e-03
4.211999999999999598e-03
4.213999999999999864e-03
4.243000000000000244e-03
4.250999999999999571e-03
4.227999999999999987e-03
4.205999999999999669e-03
4.211999999999999598e-03
4.233999999999999916e-03
4.251999999999999703e-03
4.231999999999999651e-03
4.213999999999999864e-03
4.222000000000000058e-03
4.237999999999999580e-03
4.248000000000000040e-03
4.237000000000000315e-03
4.206999999999999802e-03
4.209000000000000068e-03
4.242000000000000111e-03
4.253999999999999969e-03
4.237000000000000315e-03
4.211000000000000333e-03
4.211000000000000333e-03
4.223000000000000191e-03
4.225999999999999722e-03
4.236000000000000182e-03
4.246999999999999907e-03
4.264999999999999694e-03
4.297999999999999737e-03
4.302000000000000268e-03
4.304999999999999799e-03
4.295000000000000207e-03
4.278999999999999818e-03
4.295000000000000207e-03
4.294000000000000074e-03
4.257000000000000367e-03
4.227999999999999987e-03
4.209000000000000068e-03
4.219999999999999793e-03
4.236000000000000182e-03
4.224999999999999589e-03
4.211000000000000333e-03
4.211000000000000333e-03
4.225999999999999722e-03
4.230000000000000253e-03
4.211000000000000333e-03
